,ecg_id,r_peaks
0,1,[114 207 299 392 487 582 678 773 864]
1,2,[ 98 231 368 500 625 747 861]
2,3,[104 202 298 394 485 577 670 764 857]
3,4,[108 190 279 365 445 521 601 679 761 841 917]
4,5,[ 31 121 217 311 397 480 569 667 762 854 936]
5,6,[ 62 128 197 269 345 420 494 570 640 707 777 851 928]
6,7,[ 38 133 232 328 424 524 618 715 814 909]
7,8,[ 46 128 210 289 369 450 533 614 694 776 860 941]
8,9,[ 86 177 273 371 468 569 671 774 875]
9,10,[ 84 168 260 361 462 562 662 761 854 943]
10,11,[ 62 147 230 321 424 507 581 663 761 861]
11,12,[118 240 375 496 617 749 877]
12,13,[ 76 149 225 300 375 451 528 605 682 759 837 914]
13,14,[ 89 176 255 328 403 488 578 664 739 811 889]
14,15,[106 208 312 417 508 618 722 822 917]
15,16,[ 35 100 168 237 308 381 458 534 611 686 762 836 911]
16,17,"[ 34  77 120 163 206 249 291 334 377 420 463 506 549 584 616 657 690 723
 765 799 832 873 916]"
17,18,"[ 49  92 136 181 244 288 336 380 426 479 523 567 610 653 696 739 784 847
 893 939]"
18,19,[119 221 336 441 538 654 768 873]
19,20,"[ 67 112 154 197 240 283 325 368 411 453 497 538 580 624 667 710 754 797
 840 883 926]"
20,21,[100 188 278 358 436 509 587 673 764 850 932]
21,22,[ 91 166 241 318 394 470 541 611 684 760 837 915]
22,23,"[ 43  90 137 183 229 275 323 370 418 465 513 560 607 654 702 747 793 839
 886 934]"
23,24,[104 212 322 434 540 649 757 868]
24,25,[ 52 119 188 258 324 394 464 533 599 666 733 799 864 929]
25,26,[ 59 128 196 264 332 400 468 536 604 672 740 809 877 945]
26,27,[ 59 158 248 339 431 523 617 720 825 924]
27,28,[ 33 100 167 235 302 370 438 505 574 642 711 780 848 916]
28,29,[ 87 149 213 277 340 401 460 518 575 635 697 765 834 902]
29,30,[108 202 299 392 483 582 675 772 865]
30,31,[ 48 139 225 310 396 484 576 664 753 842 930]
31,32,[ 35  98 161 228 292 350 408 467 524 580 639 696 758 818 882 945]
32,33,[ 78 158 237 317 393 472 553 634 716 797 876]
33,34,"[ 43  89 132 179 224 270 316 361 404 450 495 541 586 632 678 724 769 814
 859 904 949]"
34,35,[102 188 268 345 422 502 584 666 746 825 908]
35,36,[ 80 138 202 262 327 394 463 531 600 666 734 801 873 941]
36,37,[ 88 191 294 402 507 612 698 800 912]
37,38,[ 82 164 248 329 410 490 573 656 742 824 905]
38,39,[ 61 127 196 263 329 396 464 531 601 668 737 806 874 944]
39,40,[ 72 167 262 352 446 539 631 724 820 916]
40,41,[ 74 157 239 325 406 491 573 654 734 818 899]
41,42,[135 245 340 440 542 648 737 839 946]
42,43,[ 54 134 211 287 366 440 512 584 657 729 806 886]
43,44,[ 80 169 266 376 483 581 674 771 879]
44,45,[ 61 121 185 249 313 376 440 504 569 633 699 765 831 897]
45,46,[ 73 144 216 288 361 436 510 582 655 729 802 873 944]
46,47,[102 183 261 340 422 501 579 658 735 809 885]
47,48,[ 92 154 218 287 359 434 508 580 648 715 785 859 933]
48,49,[ 69 135 203 274 342 412 480 547 615 686 757 827 896]
49,50,[ 41 119 217 297 382 481 565 663 748 847 934]
50,51,[123 213 305 397 490 586 677 774 870]
51,52,[ 94 173 252 336 420 504 583 661 736 813 886]
52,53,[ 38 123 207 288 374 461 541 621 701 782 862 938]
53,54,[ 36  99 164 226 290 356 421 486 554 624 692 760 828 893]
54,55,[ 81 160 244 330 418 502 579 661 747 837 921]
55,56,[ 33 101 168 234 304 371 437 505 575 643 713 783 851 919]
56,57,[113 205 298 391 484 579 674 761 850 941]
57,58,[ 80 158 235 308 383 461 542 621 693 768 849 932]
58,59,[ 76 159 242 327 412 496 578 665 751 836 922]
59,60,[ 64 184 300 409 529 654 779 897]
60,61,[ 77 158 246 340 430 520 602 680 759 847 934]
61,62,[ 40 129 215 298 382 465 544 628 714 799 882]
62,63,[ 82 178 272 377 482 580 683 783 882]
63,64,[ 46 148 247 342 435 526 616 703 790 880]
64,65,[ 34 117 200 284 368 453 537 622 705 788 872]
65,66,[ 31 118 212 305 395 483 575 660 747 836 918]
66,67,[ 64 161 256 357 457 552 644 737 823 908]
67,68,[ 78 155 233 310 383 461 538 615 693 768 848 923]
68,69,[141 264 404 545 662 799 931]
69,70,[ 98 186 275 360 441 518 595 675 758 843 924]
70,71,[ 31 113 197 286 371 455 542 631 716 801 887]
71,72,[ 78 183 282 384 484 584 687 788 890]
72,73,[129 229 330 426 520 618 720 819 912]
73,74,[109 197 286 380 468 556 651 753 853 941]
74,75,[ 50 159 266 380 502 618 738 855]
75,76,[ 44 152 244 337 421 508 614 733 843 940]
76,77,[ 81 162 246 335 421 513 598 685 768 858 943]
77,78,[ 88 227 359 473 607 744 882]
78,79,[106 209 306 408 507 607 710 814 916]
79,80,[ 49 113 176 239 302 370 435 503 566 630 689 752 819 889]
80,81,[110 206 297 391 485 577 669 765 856 948]
81,82,[ 70 174 272 372 470 569 670 768 869]
82,83,[ 84 172 258 345 432 519 606 697 784 872]
83,84,[ 52 118 183 247 309 371 433 499 568 642 708 773 839 908]
84,85,[ 64 157 246 346 445 535 626 729 829 924]
85,86,[ 55 136 211 289 367 446 525 606 681 762 840 915]
86,87,[ 70 134 196 260 320 380 441 500 557 617 676 739 802 864 928]
87,88,[ 34 116 199 287 377 475 569 664 759 841 924]
88,89,[131 235 340 451 560 659 776 896]
89,90,[108 199 279 355 444 544 637 717 792 868]
90,91,[ 47 126 210 308 389 472 563 658 750 835 918]
91,92,[121 221 324 423 519 625 731 829 934]
92,93,[110 189 273 359 444 527 612 698 786 870]
93,94,[ 65 134 205 274 352 428 507 578 643 712 778 851 932]
94,95,[127 226 333 438 536 640 747 856]
95,96,[ 41 125 205 284 364 443 521 600 679 758 837 917]
96,97,[119 219 319 418 512 614 710 808 905]
97,98,[115 201 282 362 443 533 650 750 851]
98,99,[ 48 133 221 313 400 485 569 655 742 827 916]
99,100,[ 87 177 279 381 485 587 676 784 887]
100,101,[ 92 154 218 280 345 407 469 532 597 660 723 785 850 913]
101,102,[ 71 144 217 289 362 434 506 578 650 723 795 867 939]
102,103,[ 38  95 152 210 269 327 385 442 499 556 612 669 725 781 838 895]
103,104,[ 68 170 271 366 451 540 640 741 829 915]
104,105,[ 83 156 226 308 388 463 542 609 679 744 808 886]
105,106,[ 37 149 259 382 506 625 747 873]
106,107,[101 180 256 331 407 482 557 631 706 784 861 936]
107,108,[ 66 114 163 212 262 312 363 414 465 516 566 616 666 716 764 813 861 909]
108,109,[ 38 127 209 295 379 457 539 625 707 791 882]
109,110,[ 46 136 230 315 397 489 586 674 764 861]
110,111,[ 64 151 235 322 417 511 605 701 796 885]
111,112,[ 44 126 212 300 383 468 553 637 717 799 883]
112,113,[ 69 136 197 256 318 385 448 511 569 631 707 774 839 902]
113,114,[ 42 136 226 316 415 518 618 710 791 878]
114,115,[ 37 119 194 277 364 447 535 621 708 787 870]
115,116,[ 37 116 195 274 351 429 511 593 677 763 847 932]
116,117,[ 55 117 176 238 299 362 428 497 573 648 721 794 865 937]
117,118,[ 31 132 234 333 422 499 581 703 812 911]
118,119,[ 47 141 234 326 418 512 606 699 793 886]
119,120,[ 53 151 244 334 431 533 637 736 832 932]
120,121,[ 89 161 233 305 379 454 529 603 678 753 828 905]
121,122,[ 44 143 243 337 418 498 592 688 796 909]
122,123,[ 62 130 200 275 354 436 518 594 666 735 803 872 944]
123,124,[121 222 320 415 512 608 703 795 885]
124,125,[109 211 316 429 536 635 737 840 936]
125,126,[ 36 125 212 300 385 477 573 668 759 850 945]
126,127,[ 54 141 228 309 390 465 544 630 715 799 880]
127,128,[ 91 162 231 298 361 428 488 552 613 672 731 788 853 917]
128,129,[ 43 134 231 328 425 519 615 711 811 905]
129,130,[101 191 280 372 461 547 632 717 805 895]
130,131,[ 70 159 245 330 422 511 598 687 777 869]
131,132,[ 53 128 204 280 355 429 501 571 638 711 785 867]
132,133,[ 57 160 259 358 458 563 667 768 872]
133,134,[ 90 165 240 316 390 464 539 615 690 766 842 917]
134,135,[ 57 115 173 230 287 344 402 459 516 573 630 687 744 801 858 915]
135,136,[105 196 287 377 466 554 647 736 822 912]
136,137,[ 71 136 201 265 330 395 460 524 589 654 719 783 848 912]
137,138,[ 71 136 201 265 330 395 460 524 589 654 719 783 848 912]
138,139,[ 90 187 288 386 485 581 682 780 878]
139,140,[118 210 297 388 477 565 656 746 835 928]
140,141,[ 65 131 198 265 332 401 469 536 603 671 739 807 875 943]
141,142,[ 98 202 308 412 517 633 740 844]
142,143,[113 196 281 366 446 531 622 705 790 878]
143,144,[113 196 281 366 446 531 622 705 790 878]
144,145,[133 246 358 474 592 711 825 940]
145,146,[ 95 169 242 319 394 469 546 622 700 777 855 932]
146,147,[ 95 209 317 427 534 646 754 850]
147,148,[ 62 145 227 308 391 474 546 639 722 806 889]
148,149,[ 62 142 221 297 363 436 536 621 708 800 887]
149,150,[146 268 393 512 633 756 872]
150,151,[ 94 185 277 362 446 536 628 723 829 928]
151,152,[113 182 263 341 410 484 563 630 718 794 865]
152,153,[132 234 332 427 526 628 730 829 931]
153,154,[ 48 144 240 335 432 528 625 724 821 919]
154,155,[104 187 273 355 437 521 601 682 764 843 923]
155,156,[ 41 119 200 280 360 443 521 603 683 768 849 929]
156,157,[104 202 294 394 490 586 682 775 867]
157,158,[ 33 100 167 233 299 366 433 498 563 629 694 758 822 888]
158,159,[ 84 154 225 296 367 438 508 578 649 719 789 859 929]
159,160,[ 81 192 307 418 530 642 751 861]
160,161,[ 77 146 215 284 352 421 490 560 628 697 765 836 905]
161,162,[ 78 161 246 330 416 500 584 668 752 836 918]
162,163,[115 215 324 430 517 613 745 846 945]
163,164,[ 66 123 180 238 294 351 407 463 519 577 634 691 749 809 869 930]
164,165,[ 84 186 277 370 460 551 638 729 833 926]
165,166,[ 77 177 268 370 468 567 665 757 863]
166,167,[ 41 155 266 369 477 593 710 819 925]
167,168,[112 221 330 438 545 653 762 870]
168,169,[ 68 135 202 269 336 403 470 537 605 673 741 810 877 945]
169,170,[107 202 257 391 495 590 686 782 879]
170,171,[ 49 149 254 358 462 561 664 762 862]
171,172,[ 58 132 206 281 362 431 510 580 660 730 804 884]
172,173,[ 59 144 231 316 401 486 571 656 741 827 911]
173,174,[ 32 115 197 285 365 451 536 620 704 786 866]
174,175,[111 220 327 433 541 650 758 869]
175,176,[ 34 131 227 325 389 509 620 718 784 901]
176,177,[ 79 144 207 271 335 399 462 526 590 654 717 781 844 907]
177,178,[ 64 145 227 308 390 470 555 634 718 803 884]
178,179,[ 32 118 203 288 373 462 546 629 712 795 880]
179,180,[ 42 106 171 237 301 366 431 496 562 625 690 755 820 884 948]
180,181,"[ 51  97 133 175 214 256 299 336 379 424 477 520 579 618 679 724 763 810
 846 882 933]"
181,182,[102 194 287 381 474 567 660 753 846 938]
182,183,[ 46 121 194 272 349 424 502 578 653 729 804 878]
183,184,[ 49 135 214 301 392 478 558 642 729 821 900]
184,185,[ 96 184 273 360 446 532 619 706 792 879]
185,186,[ 99 223 348 468 595 721 843]
186,187,[ 57 128 201 270 344 420 490 561 636 729 823 909]
187,188,[ 36 127 219 309 399 490 580 671 762 853 944]
188,189,[ 60 147 240 320 407 492 584 670 750 843 928]
189,190,[104 190 275 360 445 531 616 697 783 868]
190,191,[151 341 544 725 924]
191,192,[ 35 108 182 256 329 401 475 548 621 693 766 840 911]
192,193,[101 171 239 304 372 440 512 589 667 744 819 891]
193,194,[106 209 315 419 523 630 737 843]
194,195,[ 41 125 212 300 388 476 564 649 734 818 902]
195,196,[113 219 326 431 540 645 750 853]
196,197,[ 63 152 240 331 425 522 620 715 810 906]
197,198,[ 59 144 232 322 404 490 580 674 763 852 946]
198,199,[ 65 124 182 240 300 362 429 493 557 618 680 742 804 866 930]
199,200,[ 49 136 221 302 382 465 549 633 718 802 882]
200,201,[ 50 115 178 246 309 370 437 502 568 632 689 750 813 877 945]
201,202,[ 77 169 256 351 448 531 613 702 797 896]
202,203,[ 76 186 291 398 507 618 724 831 940]
203,204,[ 38 120 202 284 364 443 522 602 683 763 845 929]
204,205,[ 83 166 260 347 430 525 626 725 824 920]
205,206,[ 35 145 257 370 480 593 710 826 937]
206,207,[ 91 198 306 413 516 618 722 827 932]
207,208,[ 91 192 293 400 502 594 687 778 872]
208,209,[111 203 293 379 464 547 636 729 824 914]
209,210,[111 195 279 363 446 526 604 679 753 829 909]
210,211,[119 210 301 390 481 571 662 753 843 933]
211,212,[ 45 144 246 342 442 537 637 736 831 930]
212,213,[100 200 298 396 494 592 689 789 856]
213,214,[ 99 181 262 340 421 499 582 666 752 839 920]
214,215,[ 52 118 184 248 312 374 436 497 559 621 683 747 811 873 935]
215,216,[ 37 103 169 235 301 366 431 496 561 625 689 754 819 884 949]
216,217,[ 69 133 197 267 331 395 459 523 587 651 717 785 848 913]
217,218,[ 73 143 213 284 354 422 492 560 629 696 767 835 905]
218,219,[ 38 121 202 283 364 446 527 608 689 772 839 935]
219,220,[ 51 127 202 275 347 419 493 564 635 706 778 847 919]
220,221,[ 99 194 292 388 479 566 658 751 846 937]
221,222,[ 48 100 151 202 253 303 353 402 453 503 553 604 655 707 759 812 865 918]
222,223,[ 98 177 238 328 412 494 575 654 715 805 889]
223,224,[ 49 140 233 324 418 510 598 689 780 871]
224,225,[118 224 325 428 528 624 724 824 920]
225,226,[ 67 144 221 299 377 455 534 613 691 769 847 926]
226,227,[ 49 126 204 284 364 444 525 614 703 791 877]
227,228,[ 80 185 284 387 472 557 646 737 855]
228,229,[ 73 170 267 363 458 552 638 728 826 923]
229,230,[ 48 121 191 261 332 405 479 550 617 686 759 831 900]
230,231,[ 73 188 318 445 566 676 789 910]
231,232,[ 85 173 261 350 439 529 619 705 791 875]
232,233,[ 31 123 212 303 391 475 555 641 733 823 913]
233,234,[ 43 114 186 259 334 409 483 558 632 706 779 852 921]
234,235,[ 41 158 268 383 498 614 733 852]
235,236,[ 93 165 243 316 389 465 535 602 677 748 824 898]
236,237,[ 43 136 229 321 409 499 594 687 782 876]
237,238,[103 184 264 342 419 495 570 647 725 801 878]
238,239,[111 200 290 382 473 565 657 747 837 928]
239,240,[ 73 193 314 434 556 678 800 921]
240,241,[ 84 161 246 322 400 479 557 631 702 774 846 922]
241,242,[105 202 289 369 456 510 625 717 809 902]
242,243,[ 71 141 218 296 377 454 534 612 691 772 859 945]
243,244,[130 245 364 476 594 717 840]
244,245,[ 77 139 201 265 329 397 461 524 586 647 708 768 829 892]
245,246,[ 79 165 244 322 400 480 563 643 721 798 878]
246,247,[128 219 317 414 507 602 696 787 879]
247,248,[ 47 105 169 228 290 354 422 490 553 617 679 740 801 861 922]
248,249,[ 59 127 192 257 326 396 465 533 598 663 727 793 864 934]
249,250,[113 197 280 366 447 523 606 698 795 894]
250,251,[ 81 164 244 321 390 459 535 630 716 796 878]
251,252,[103 181 258 340 423 505 587 663 742 819 897]
252,253,[ 84 192 298 411 525 635 748 863]
253,254,[107 204 306 405 501 601 699 792 888]
254,255,[103 172 216 309 378 422 515 583 651 718 786 831 923]
255,256,[ 56 128 200 271 332 415 471 559 629 703 775 848 921]
256,257,[ 78 146 213 281 348 400 452 530 596 664 734 803 872 941]
257,258,[ 87 209 333 455 577 703 831]
258,259,[103 186 270 355 436 517 602 687 772 856 937]
259,260,[ 48 123 196 269 343 417 492 566 639 715 790 866 941]
260,261,[ 42 127 214 302 390 479 568 658 746 831 918]
261,262,[ 70 170 269 368 466 558 658 756 849 944]
262,263,[ 66 122 177 233 289 345 400 456 512 568 623 679 736 793 848 904]
263,264,[120 222 327 432 539 647 756 863]
264,265,[ 89 166 248 329 411 492 574 656 736 817 897]
265,266,[ 72 121 228 307 387 436 553 637 726 823 919]
266,267,[ 58 151 245 334 422 512 603 693 780 869]
267,268,[ 64 160 250 337 428 518 609 702 797 891]
268,269,[ 95 173 248 320 390 467 551 628 696 755 849 932]
269,270,[ 40  98 156 213 270 327 385 442 503 562 621 683 744 805 867 929]
270,271,[ 82 146 212 259 301 382 452 519 585 650 716 782 846 910]
271,272,[110 202 294 388 484 577 672 767 861]
272,273,[ 45 105 169 228 290 350 412 470 531 593 654 714 777 836 900]
273,274,[ 93 180 271 361 453 540 626 712 803 895]
274,275,[ 78 145 211 278 346 414 483 552 620 687 756 827 897]
275,276,[ 68 159 246 339 428 519 608 698 787 875]
276,277,[ 74 157 237 314 387 465 548 632 715 802 889]
277,278,[ 91 155 219 284 350 416 480 543 606 668 730 792 854 916]
278,279,[ 70 122 174 226 277 330 383 435 488 540 593 645 697 750 800 851 903]
279,280,[ 73 172 269 368 466 566 664 761 859]
280,281,[ 63 135 277 348 420 483 564 635 707 779 850 924]
281,282,[ 99 171 250 356 417 478 558 635 711 775 834 922]
282,283,[ 31 123 215 302 394 479 570 663 751 839 931]
283,284,[ 97 203 347 486 606 713 816]
284,285,[ 61 134 206 278 350 422 493 565 638 712 787 861 935]
285,286,[ 99 211 322 431 535 650 759 868]
286,287,[ 79 146 214 282 350 419 489 559 612 700 770 840 910]
287,288,[133 246 362 482 598 707 818 936]
288,289,[ 80 204 329 449 572 690 813 932]
289,290,[ 98 184 271 357 444 531 616 699 782 867]
290,291,[ 62 125 185 245 305 364 430 493 554 613 670 731 792 855 913]
291,292,[ 96 207 317 428 536 643 754 862]
292,293,[ 82 167 251 334 416 496 572 651 730 811 896]
293,294,[ 37 111 181 249 316 387 456 524 593 660 731 792 868 937]
294,295,[ 73 161 250 338 423 513 598 687 774 862]
295,296,[ 77 173 270 368 464 559 657 755 851 948]
296,297,[109 198 284 370 457 544 630 717 754 885]
297,298,[ 59 120 181 240 301 362 423 484 546 609 670 732 793 855 917]
298,299,[ 35 122 201 287 370 449 535 617 699 778 864 943]
299,300,[ 88 166 243 320 397 474 552 628 704 781 860 935]
300,301,[ 57 132 208 284 363 444 524 605 684 766 846 924]
301,302,[ 70 175 276 378 483 588 693 794 893]
302,303,[ 52 124 192 264 337 411 483 559 638 716 794 876]
303,304,[ 61  91 142 227 309 395 479 564 645 729 813 896]
304,305,[ 34 102 175 251 333 404 483 558 643 716 793 867]
305,306,[ 71 141 211 281 349 416 484 557 627 698 766 836 905]
306,307,[ 52 229 313 426 502 584 679 816 913]
307,308,[ 74 180 286 392 499 605 711 816 922]
308,309,[101 195 288 378 475 571 669 766 858]
309,310,[105 210 312 412 513 614 715 816 917]
310,311,[ 56 172 288 403 517 632 744 860]
311,312,[ 88 170 250 330 407 487 566 644 721 801 883]
312,313,[ 93 197 297 400 501 601 699 797 900]
313,314,[100 193 285 374 464 553 640 721 800 883]
314,315,[ 99 201 302 406 510 614 716 818 919]
315,316,[ 95 193 296 426 556 689 750 863 920]
316,317,[ 58 152 245 336 427 518 610 702 796 891]
317,318,[ 41 103 169 248 325 385 447 512 565 628 704 772 833 886]
318,319,[114 199 284 369 452 535 618 702 787 872]
319,320,[103 213 322 432 542 651 761 871]
320,321,[ 52 117 167 251 297 381 451 524 583 637 686 764 821 868 928]
321,322,[121 224 333 443 548 651 781 900]
322,323,[ 54 130 216 300 382 469 556 644 729 819 906]
323,324,[ 96 188 280 360 439 523 608 686 767 846 927]
324,325,[107 191 274 359 441 521 600 678 758 842 929]
325,326,[ 63 139 217 295 374 452 528 606 686 764 842 920]
326,327,[118 212 306 400 497 594 688 783 878]
327,328,[ 96 203 303 405 516 645 762 870]
328,329,[ 90 153 217 281 346 415 481 548 614 676 740 804 869 935]
329,330,[167 273 364 440 539 642 722 793 883]
330,331,[ 88 164 242 318 396 474 552 628 707 783 858 935]
331,332,[108 188 266 343 419 496 573 651 729 807 885]
332,333,[ 65 142 221 303 382 465 547 629 712 796 880]
333,334,[ 31 137 240 340 447 551 653 752 852]
334,335,[ 66 158 249 338 428 519 614 707 802 900]
335,336,"[ 41  82 120 160 199 238 277 317 356 397 437 475 516 555 593 634 674 712
 751 790 831 869 909 949]"
336,337,[127 221 288 366 432 491 548 594 643 695 746 814 881]
337,338,[ 35 124 196 283 442 514 602 681 761 833 913]
338,339,[ 89 157 224 289 360 424 495 563 631 697 773 852 930]
339,340,[ 95 180 267 355 444 531 618 705 793 882]
340,341,[ 55 131 208 286 367 442 518 594 671 750 827 901]
341,342,[ 42 136 231 327 422 517 611 703 795 888]
342,343,[ 95 176 258 339 420 498 581 666 751 841 928]
343,344,[ 90 152 213 274 335 397 459 521 582 643 706 769 831 893]
344,345,[ 96 194 289 372 456 543 635 728 823 913]
345,346,[ 47 109 171 232 294 356 416 477 539 600 661 722 784 845 907]
346,347,[ 80 143 209 274 340 408 471 537 605 668 734 800 865 933]
347,348,[ 92 168 245 319 394 470 545 621 696 771 847 922]
348,349,[ 49 131 182 297 380 465 521 636 719 804 888 946]
349,350,[ 60 144 216 301 389 478 564 638 727 816 904]
350,351,"[ 38  77 115 153 189 230 268 318 362 406 450 486 526 561 597 634 675 710
 774 812 850 883 916]"
351,352,[ 43 118 188 266 344 419 502 576 649 743 840 934]
352,353,[ 41 102 163 220 276 334 396 459 526 593 661 726 790 853 915]
353,354,[ 74 181 290 396 506 617 724 828 935]
354,355,[ 93 162 235 307 382 456 529 603 678 755 829 904]
355,356,[ 61 159 252 334 414 496 580 668 762 855]
356,357,[ 77 173 292 401 517 633 747 815 934]
357,358,[ 80 172 264 357 452 547 641 736 832 925]
358,359,[ 38 129 217 308 396 490 585 682 782 874]
359,360,[ 42 119 194 270 345 419 492 564 638 714 792 869 947]
360,361,[ 88 159 226 294 363 429 497 564 633 700 765 833 902]
361,362,[ 73 185 281 381 476 587 707 817 932]
362,363,[ 78 111 221 258 350 388 472 531 588 644 682 773 832 878]
363,364,[119 219 315 428 545 656 755 865]
364,365,[115 219 318 418 525 629 730 837 947]
365,366,[ 88 170 254 332 404 471 546 615 681 747 816 882]
366,367,[ 41 110 180 251 320 392 465 538 617 694 772 846 920]
367,368,[ 42 135 227 321 414 507 599 690 783 875]
368,369,[ 69 138 209 278 349 419 486 553 619 685 754 823 895]
369,370,[ 91 175 260 341 421 502 587 670 754 834 919]
370,371,[ 54 141 248 342 446 547 642 737 836 932]
371,372,[ 98 214 336 446 569 687 799 921]
372,373,[121 212 296 389 485 576 662 752 844 935]
373,374,[123 214 298 386 473 560 649 732 815 894]
374,375,[ 72 160 242 328 415 504 596 689 789 886]
375,376,[110 214 314 417 522 628 725 836 945]
376,377,[ 57 119 180 240 302 365 427 489 550 611 671 732 794 857 921]
377,378,[ 85 169 251 330 404 481 604 712 807 889]
378,379,[ 58 144 229 319 402 487 572 660 759 855]
379,380,[108 196 288 379 465 559 650 738 829 917]
380,381,[120 234 356 487 627 777 919]
381,382,[111 177 238 297 371 450 519 588 669 760 828 924]
382,383,[138 267 403 531 667 800 928]
383,384,[ 58 157 254 351 444 539 635 726 818 911]
384,385,[ 40 124 209 296 380 465 550 636 722 804 891]
385,386,[ 42  99 149 191 270 323 385 444 482 559 613 670 732 779 843 887 925]
386,387,[ 77 166 242 315 398 486 576 663 753 831 906]
387,388,[ 82 156 231 302 375 446 525 602 675 752 823 891]
388,389,[ 68 149 232 315 396 477 559 640 725 807 885]
389,390,[ 83 199 310 420 527 630 736 853]
390,391,[ 70 129 191 251 311 372 433 493 555 615 675 738 799 860 922]
391,392,[ 88 175 262 346 425 506 598 688 768 841 920]
392,393,[ 64 155 250 345 428 507 598 699 794 886]
393,394,[122 237 341 445 558 671 765 876]
394,395,[ 66 144 225 301 378 458 538 617 695 770 848 929]
395,396,[ 65 163 275 381 471 557 640 735 845]
396,397,[ 37 127 213 304 396 479 574 661 743 839 940]
397,398,[ 46 129 212 291 362 434 503 574 650 724 795 863 931]
398,399,[ 38 116 193 268 344 417 490 564 641 718 794 874]
399,400,[ 90 165 251 342 432 519 604 689 774 860 941]
400,401,[100 207 315 416 515 629 744 842 942]
401,402,[ 80 168 258 342 430 514 590 666 752 863]
402,403,[ 57 124 203 282 364 444 525 600 676 746 819 892]
403,404,[101 210 318 429 541 647 755 867]
404,405,[105 198 289 380 471 563 653 746 834 921]
405,406,[ 80 186 293 396 500 606 709 811 915]
406,407,[128 229 328 427 526 625 723 821 920]
407,408,[ 62 127 191 256 320 384 448 512 576 640 703 765 827 891]
408,409,[ 31  95 158 222 285 348 411 474 537 600 663 727 790 854 917]
409,410,[ 49 166 285 406 522 640 758 872]
410,411,[ 62 152 241 330 418 505 594 682 771 861]
411,412,[ 35 106 177 248 318 388 458 528 597 667 738 808 879]
412,413,[115 204 293 379 469 561 650 738 830 923]
413,414,[ 81 159 240 318 394 473 552 631 710 792 869 949]
414,415,[114 206 299 392 483 571 658 742 826 910]
415,416,[110 244 358 453 541 643 756 878]
416,417,[120 228 337 445 554 661 769 879]
417,418,[100 200 297 401 505 609 711 812 914]
418,419,[105 211 319 427 531 638 743 846 945]
419,420,[138 258 369 484 596 702 818 935]
420,421,[ 97 193 285 381 481 540 650 750 847 945]
421,422,[ 44 117 190 263 335 409 482 557 631 706 780 855 930]
422,423,[ 86 177 254 324 374 419 462 525 585 628 670 708 753 828 874]
423,424,[ 56 139 222 305 389 471 554 638 722 807 891]
424,425,[100 166 232 297 362 429 497 564 630 696 744 826 891]
425,426,[ 33 118 205 286 373 458 546 634 724 814 900]
426,427,[ 86 148 235 312 388 447 538 612 676 760 828 913]
427,428,[ 66 115 184 245 291 358 417 461 499 560 614 685 740 801 856 933]
428,429,[ 72 181 286 391 496 603 713 817 918]
429,430,[ 36 144 254 362 469 576 686 796 901]
430,431,[ 37 110 180 251 325 402 481 561 637 707 776 848 920]
431,432,[112 200 277 354 438 523 597 667 739 827 910]
432,433,[ 40 122 205 289 372 454 532 608 683 757 831 906]
433,434,[101 190 281 371 454 532 624 719 807 894]
434,435,[ 38 134 227 322 413 507 595 682 773 864]
435,436,[ 89 172 252 334 379 511 598 689 785 885]
436,437,[ 53 139 225 312 399 487 574 660 749 837 926]
437,438,[106 196 289 382 478 571 663 756 847 937]
438,439,[ 45 123 205 286 368 446 527 608 688 765 846 929]
439,440,[ 45 132 215 287 373 447 521 592 663 736 815 886]
440,441,[ 52 121 191 260 329 397 468 539 610 681 750 822 889]
441,442,[ 51 124 196 270 345 418 490 565 637 712 784 857 930]
442,443,[ 44 129 212 295 379 462 545 630 714 799 884]
443,444,[110 198 289 381 467 548 628 710 794 883]
444,445,[119 238 358 478 599 718 836]
445,446,[ 69 165 263 364 466 567 666 761 859]
446,447,[ 43 121 197 271 345 419 495 572 652 733 815 897]
447,448,[ 66 165 255 346 435 524 612 702 792 881]
448,449,"[ 63  98 132 168 204 240 276 312 347 383 415 447 481 514 548 582 618 652
 688 720 758 818 853 888 923]"
449,450,[ 55 139 224 309 395 479 563 648 732 814 899]
450,451,[110 201 286 370 458 546 635 724 815 906]
451,452,[ 44 127 210 282 337 422 494 560 644 737 815 901]
452,453,[ 74 183 290 399 508 615 724 835 945]
453,454,[ 53 158 266 375 483 590 695 800 903]
454,455,[ 46 128 217 291 374 457 538 627 706 787 862 942]
455,456,[ 67 170 274 376 482 585 690 793 899]
456,457,[ 67 170 274 376 482 585 690 793 899]
457,458,[137 243 352 460 566 673 778 883]
458,459,[ 67 153 242 326 408 493 579 663 744 828 909]
459,460,[ 67 153 242 326 408 493 579 663 744 828 909]
460,461,[111 206 299 393 488 581 674 767 859]
461,462,[ 40 135 229 326 422 519 619 721 821 921]
462,463,[133 246 358 474 592 711 825 940]
463,464,[ 81 160 240 320 397 473 549 626 704 783 863 941]
464,465,[ 41  94 149 202 252 305 358 410 462 517 568 622 676 730 784 837 890 943]
465,466,[ 96 186 276 368 466 557 645 736 826 920]
466,467,[ 77 157 232 302 373 445 519 595 670 748 820 899]
467,468,[ 52 139 224 309 401 487 574 664 750 839 927]
468,469,[ 39 113 186 261 335 411 487 563 638 715 792 868 944]
469,470,[123 220 316 410 501 593 689 782 877]
470,471,[ 83 154 229 304 377 447 518 590 664 737 808 878]
471,472,[ 83 173 262 349 436 524 614 702 789 876]
472,473,[104 213 323 433 542 651 760 869]
473,474,[ 45 135 223 313 403 493 581 667 752 838 925]
474,475,[ 36 104 155 239 311 382 451 523 596 669 742 813 883]
475,476,[115 219 321 423 525 627 733 838 944]
476,477,[ 73 273 458 648 841]
477,478,[ 92 183 272 368 473 578 681 772 854 938]
478,479,[ 69 156 245 338 429 525 622 715 805 894]
479,480,[ 74 150 222 295 375 445 532 602 671 757 839 912]
480,481,[ 77 149 224 297 369 443 519 593 666 739 815 892]
481,482,[ 66 117 172 225 301 367 422 468 514 578 620 676 719 820 875 934]
482,483,[ 58 116 173 232 290 349 406 464 521 579 637 695 754 811 869 926]
483,484,[ 74 179 285 393 501 608 717 828 937]
484,485,[ 35 111 190 264 340 417 495 577 658 738 818 862]
485,486,[ 71 111 197 244 331 378 466 521 600 667 734 800 867 932]
486,487,[ 41 135 229 322 418 513 608 704 800 896]
487,488,[121 217 311 402 491 582 671 760 852 942]
488,489,[ 75 185 291 406 518 630 741 851]
489,490,[ 62 130 196 262 331 400 469 538 605 673 741 807 873 939]
490,491,[ 86 164 245 331 421 510 600 689 781 869]
491,492,[ 92 173 256 337 418 496 575 654 733 810 886]
492,493,[ 88 164 235 311 382 459 530 606 680 751 825 901]
493,494,[ 94 177 261 346 430 516 603 691 778 864]
494,495,[ 69 168 266 364 461 557 655 754 857]
495,496,[ 80 170 267 362 455 549 644 736 826 913]
496,497,[ 98 185 273 358 447 535 622 706 794 880]
497,498,[ 93 192 292 392 491 590 689 789 889]
498,499,[ 43 156 270 384 500 614 729 841]
499,500,"[ 47  87 119 160 192 229 264 305 337 375 413 446 477 514 547 580 612 652
 688 723 761 798 834 900 939]"
500,501,[ 61 138 221 299 379 458 536 613 691 767 847 925]
501,502,[ 44 123 200 275 348 421 493 566 643 719 801 881]
502,503,[ 61 124 188 250 312 374 437 499 561 623 685 721 788 862 904]
503,504,[ 84 165 254 345 429 519 604 689 775 862]
504,505,[ 49 134 216 296 371 450 530 610 693 780 869]
505,506,[ 47 129 217 312 410 498 582 674 771 865]
506,507,[ 39 178 298 408 532 668 783 897]
507,508,[109 241 370 503 637 778 913]
508,509,[ 87 177 266 350 435 524 614 699 783 873]
509,510,[ 60 189 321 451 577 701 822 944]
510,511,[147 258 367 454 585 689 795 903]
511,512,[121 263 394 531 673 804 941]
512,513,[121 210 292 374 460 546 633 716 805 891]
513,514,[ 83 163 243 323 400 479 559 640 720 798 877]
514,515,[ 73 154 238 323 418 500 587 669 750 831 916]
515,516,[ 45 117 185 255 325 392 458 524 590 655 720 786 852 917]
516,517,"[ 65 110 149 197 241 284 322 383 434 477 531 580 624 661 697 744 810 850
 897 946]"
517,518,[102 194 291 383 477 568 660 752 843 933]
518,519,[ 44 161 277 394 511 628 743 857]
519,520,[ 72 141 210 278 347 419 490 560 628 696 764 831 899]
520,521,[ 49 124 198 273 350 427 506 587 669 750 831 909]
521,522,[ 44 138 236 329 426 519 617 709 805 900]
522,523,[115 199 282 367 453 545 637 728 817 905]
523,524,[ 31  84 138 191 244 298 352 406 460 513 566 623 677 731 782 839 889 946]
524,525,[ 91 184 275 367 459 550 642 734 825 916]
525,526,[122 220 319 419 516 616 715 815 912]
526,527,[ 79 161 243 326 409 492 574 658 740 824 907]
527,528,[ 99 174 252 332 406 482 565 639 713 789 868 944]
528,529,[ 34 126 218 313 406 499 594 690 781 877]
529,530,[ 81 174 268 365 460 553 639 740 831 920]
530,531,[ 97 190 291 390 488 584 673 757 842 930]
531,532,[ 88 164 241 320 396 471 548 625 702 777 854 931]
532,533,[102 179 256 334 415 497 580 661 744 825 907]
533,534,[ 58 173 315 435 543 656 767 880]
534,535,[ 63 144 224 306 387 468 548 630 713 792 873]
535,536,[ 44 132 220 308 397 489 582 674 765 856 947]
536,537,[106 196 294 389 484 578 670 768 864]
537,538,[104 191 280 370 462 553 644 736 829 921]
538,539,[118 215 308 401 493 583 670 759 849 940]
539,540,[ 85 182 277 372 471 570 672 772 869]
540,541,[ 68 155 241 326 412 496 580 664 748 833 916]
541,542,[ 31 120 210 297 384 473 563 654 746 841 934]
542,543,[125 255 383 511 638 763 890]
543,544,[ 49 105 162 218 275 332 390 449 508 567 624 683 741 799 858 916]
544,545,[ 70 152 243 330 418 501 587 675 767 857]
545,546,[ 43 151 254 364 470 572 683 792 893]
546,547,[ 95 143 299 351 500 545 691 743 884 935]
547,548,[ 42  98 153 208 263 319 375 431 487 544 600 656 712 769 827 886 946]
548,549,[ 46 110 174 237 302 365 428 491 554 617 682 745 809 872 936]
549,550,[ 49 102 155 208 261 314 367 419 472 526 579 632 686 739 793 846 900]
550,551,[ 76 182 288 393 454 499 605 710 815 921]
551,552,[ 64 142 216 291 366 439 514 588 665 744 822 900]
552,553,[104 183 262 340 423 505 589 670 749 831 911]
553,554,[ 71 130 191 253 313 371 433 492 552 610 671 729 788 847 906]
554,555,[ 85 159 233 307 383 459 515 546 681 756 827 901]
555,556,[ 54 125 195 265 335 405 476 546 616 686 757 827 897]
556,557,[ 31 117 179 264 349 437 490 572 682 735 815 876 939]
557,558,[ 80 154 229 305 381 460 539 616 695 773 849 926]
558,559,[ 37 146 256 362 470 576 677 781 883]
559,560,[ 92 168 240 314 387 463 538 618 697 770 848 921]
560,561,[ 64 132 201 267 342 417 497 576 654 729 801 877]
561,562,[ 41 135 227 317 408 503 598 692 787 884]
562,563,[ 78 152 217 287 357 426 496 566 636 706 777 847 917]
563,564,[ 63 142 219 298 377 455 534 615 693 773 853 930]
564,565,[ 98 191 283 376 473 569 659 754 841 929]
565,566,[118 212 305 397 488 578 677 771 862]
566,567,"[ 52  93 133 179 225 267 312 357 403 449 491 533 575 620 668 712 758 795
 841 886 930]"
567,568,[ 62 182 307 435 558 681 805 928]
568,569,[ 66 113 177 248 314 365 421 469 534 583 641 690 754 827 882 942]
569,570,[ 69 167 275 384 496 603 715 825 935]
570,571,[ 47 121 195 270 345 420 497 574 653 732 809 887]
571,572,[ 51 140 223 307 392 477 561 646 733 816 900]
572,573,[ 86 157 229 282 375 433 518 589 639 737 807 857]
573,574,[ 43 159 273 388 504 621 735 850]
574,575,[ 49 120 165 249 329 377 419 531 583 630 669 752 820 889]
575,576,[ 50 111 172 237 304 369 434 501 569 634 707 779 850 924]
576,577,[ 32 107 182 257 332 406 481 555 627 704 779 853 926]
577,578,[ 78 161 240 319 403 484 568 650 725 802 883]
578,579,[ 44 117 190 263 335 407 480 553 626 699 772 844 916]
579,580,[ 96 165 233 307 377 452 527 602 678 752 823 896]
580,581,[105 247 351 492 641 789 943]
581,582,[ 68 171 271 372 473 568 659 753 851]
582,583,[ 74 166 258 348 442 535 628 720 807 852 900]
583,584,[ 67 141 215 293 370 444 516 586 654 725 799 874 949]
584,585,[ 99 176 250 327 400 479 557 633 707 786 865 941]
585,586,[ 75 159 245 333 422 513 604 699 792 883]
586,587,[ 44 131 216 301 379 452 533 621 705 788 868]
587,588,[ 42 122 206 292 379 464 548 630 713 798 882]
588,589,[ 37 109 188 271 355 432 506 583 667 747 824 905]
589,590,[ 48 162 276 383 493 601 710 823 942]
590,591,[ 95 178 258 338 420 501 581 662 745 828 913]
591,592,[ 81 175 268 363 458 555 651 745 837 929]
592,593,[ 54 154 254 354 454 554 652 752 852]
593,594,[ 81 128 174 219 283 333 383 441 497 539 579 638 686 728 771 817 875 925]
594,595,[108 190 270 351 433 511 591 669 747 829 911]
595,596,[ 55 146 238 327 416 503 588 679 773 865]
596,597,[117 223 330 439 538 638 743 852]
597,598,[ 88 172 239 335 460 548 642 712 792 862 942]
598,599,[127 233 334 439 541 644 748 854]
599,600,[ 54 129 203 282 351 431 500 574 647 720 791 862 935]
600,601,[ 89 165 241 318 394 471 549 625 701 777 853 929]
601,602,[ 51 136 218 304 385 467 561 656 774 882]
602,603,[ 94 159 226 292 357 422 488 554 620 685 749 815 880 945]
603,604,[ 57 144 227 310 391 473 555 636 693 779 862 944]
604,605,[ 92 185 281 378 472 567 664 758 853]
605,606,[ 39 135 231 328 424 522 619 717 813 907]
606,607,[ 75 159 244 327 410 493 576 659 741 824 906]
607,608,"[ 39  92 129 163 197 232 279 331 369 416 451 504 541 586 626 682 731 778
 828 904 942]"
608,609,[ 71 162 256 346 441 532 623 714 804 895]
609,610,[ 87 166 268 344 407 485 550 624 698 770 874 941]
610,611,[ 55 202 350 495 640 787 929]
611,612,[150 284 418 548 679 808 943]
612,613,[105 194 282 371 459 549 639 728 818 908]
613,614,[ 85 163 239 317 395 472 549 626 703 780 856 932]
614,615,[ 64 147 232 321 409 495 581 665 746 829 911]
615,616,[ 44 160 280 396 513 632 746 862]
616,617,[ 55 131 208 282 359 437 511 586 664 742 820 901]
617,618,[ 94 177 260 346 434 520 607 695 782 868]
618,619,[ 81 163 238 322 415 500 581 661 741 820 899]
619,620,[ 62 144 226 309 394 478 560 640 720 800 882]
620,621,[109 212 315 416 517 624 728 831 936]
621,622,[ 81 140 198 257 317 376 435 494 553 612 670 729 787 846 903]
622,623,[ 60 138 221 294 372 450 528 605 682 760 842 922]
623,624,[ 44 120 196 275 351 427 503 578 651 726 802 875]
624,625,[ 37 102 166 231 297 362 427 492 556 622 686 750 813 876 941]
625,626,[ 46 105 164 224 285 344 403 463 521 581 640 699 759 819 879 939]
626,627,[ 32 119 205 292 376 462 551 635 721 809 895]
627,628,[ 48 188 237 377 425 565 614 753 802 940]
628,629,[ 90 172 257 340 422 505 587 668 751 832 914]
629,630,[ 43 124 205 285 367 449 532 614 698 780 864 947]
630,631,[ 37 102 220 281 420 516 613 711 809 906]
631,632,[ 87 161 236 309 384 458 531 606 646 732 810 885]
632,633,[ 86 172 257 343 430 516 601 688 776 864]
633,634,[107 176 247 323 369 441 517 598 671 714 784 828 877]
634,635,[ 32 126 212 294 381 457 547 625 716 799 888]
635,636,[ 59 123 197 263 327 374 430 492 576 650 737 803 869 927]
636,637,[126 250 392 484 609 688 759 831 931]
637,638,[124 224 321 410 496 593 697 798 894]
638,639,[ 44 127 205 288 371 455 537 618 693 771 851 933]
639,640,[ 63 138 217 293 372 448 526 600 673 750 822 893]
640,641,[ 94 168 240 315 387 461 531 603 671 741 808 878]
641,642,[ 50 121 192 263 337 412 487 559 629 701 776 851 923]
642,643,[ 52 126 198 272 346 421 496 571 645 720 795 869 943]
643,644,[ 37  95 156 221 285 349 411 474 534 595 654 709 765 821 879 938]
644,645,[ 73 173 266 355 442 539 650 755 851 941]
645,646,[ 37 133 226 311 394 476 559 643 710 803 887]
646,647,[ 95 182 265 352 440 528 622 710 796 886]
647,648,[ 87 161 235 309 384 457 527 597 664 733 799 865 932]
648,649,[ 45 155 267 379 494 601 715 831 942]
649,650,[100 188 276 364 454 543 630 717 806 895]
650,651,[ 67 146 224 302 381 460 539 617 696 779 856 943]
651,652,[ 50 109 166 228 287 346 406 465 524 582 641 700 756 817 873 932]
652,653,[ 94 191 287 383 479 576 673 769 865]
653,654,[ 77 164 258 353 447 530 619 709 806 897]
654,655,[ 65 172 279 389 505 619 728 834 941]
655,656,[ 40 171 258 345 422 555 649 734 804 874]
656,657,[ 60 139 219 297 375 457 538 617 692 766 841 919]
657,658,[ 69 192 318 446 571 696 816 939]
658,659,[ 67 175 282 388 493 598 702 806 912]
659,660,[ 67 163 258 351 446 539 634 728 819 909]
660,661,[ 99 190 278 370 463 557 647 737 827 914]
661,662,[109 188 266 342 418 494 570 648 729 811 894]
662,663,[ 52 142 233 323 413 501 588 675 762 849 935]
663,664,[ 49 127 211 292 370 453 534 617 705 782 862 940]
664,665,[ 87 169 244 325 403 482 527 647 726 802 877]
665,666,[ 94 183 274 365 456 544 628 716 804 897]
666,667,[ 35 114 192 271 353 427 506 586 665 745 826 907]
667,668,[ 70 148 224 302 381 459 539 619 700 781 862 940]
668,669,[ 33 107 185 267 340 419 494 570 644 720 795 869 944]
669,670,[ 52 126 198 273 346 420 494 569 644 718 793 867 941]
670,671,[ 44 120 197 277 355 434 512 590 672 752 828 907]
671,672,[ 46 138 233 327 421 514 607 701 794 887]
672,673,[ 36 110 185 260 334 408 483 560 637 713 787 859 932]
673,674,[ 72 141 200 250 317 436 520 623 672 739 837 910]
674,675,[103 186 265 347 428 510 593 674 752 829 907]
675,676,[ 42 132 222 312 400 488 576 636 756 847 940]
676,677,[100 198 293 385 484 588 693 784 883]
677,678,[ 72 138 212 276 344 413 487 554 624 694 763 836 904]
678,679,[ 96 175 253 331 408 487 568 647 725 803 884]
679,680,[ 74 147 226 296 371 446 521 596 673 747 815 888]
680,681,[ 57 131 205 279 348 426 500 571 645 723 796 870 943]
681,682,[ 32 114 190 266 348 426 500 576 652 726 796 869 942]
682,683,[103 204 304 404 506 607 708 809 908]
683,684,[116 217 314 416 518 619 720 824 926]
684,685,[ 44 120 198 275 352 428 505 584 664 741 818 895]
685,686,[133 240 344 456 557 669 773 881]
686,687,[ 71 148 209 295 369 443 517 591 664 718 806 882 942]
687,688,[ 87 174 261 352 443 533 621 707 793 879]
688,689,[ 61 129 197 268 338 415 483 557 631 699 769 839 910]
689,690,[107 220 331 441 552 660 770 877]
690,691,[ 77 158 225 284 353 401 481 548 615 688 744 799 853 928]
691,692,[102 192 286 378 468 561 661 755 851]
692,693,[ 34 127 222 318 413 507 599 690 785 880]
693,694,[ 48 130 218 305 392 477 559 636 711 793 875]
694,695,[ 62 157 252 347 443 537 629 718 810 902]
695,696,[ 92 180 268 356 438 527 616 704 794 883]
696,697,[ 82 182 259 319 395 470 522 635 682 733 786 847 896]
697,698,[ 63 116 169 221 274 327 379 432 485 538 591 645 699 752 806 859 912]
698,699,[ 89 157 234 307 380 462 531 604 654 721 768 816 889]
699,700,[ 75 147 219 292 365 438 512 589 666 743 820 896]
700,701,[110 212 315 415 517 618 718 820 922]
701,702,[121 228 342 456 566 678 797 914]
702,703,[ 95 146 212 272 324 376 435 489 559 623 692 758 824 900]
703,704,[ 48 135 212 286 360 426 488 573 653 729 802 876 942]
704,705,[ 90 170 250 331 409 488 566 645 723 804 885]
705,706,[127 219 305 428 519 605 679 774 854 937]
706,707,[128 229 327 429 533 633 733 830 929]
707,708,[ 35 113 191 267 344 422 501 579 659 740 819 898]
708,709,[ 95 156 218 280 342 404 465 526 587 645 706 765 829 890 946]
709,710,[ 77 169 260 359 458 559 660 755 850]
710,711,[ 35 122 210 295 381 466 551 637 723 807 892]
711,712,[ 34  94 154 212 275 336 396 457 517 577 641 698 756 805 881 941]
712,713,[120 226 332 438 544 650 755 861 911]
713,714,[101 192 283 371 461 551 641 730 819 909]
714,715,[ 74 136 198 260 322 385 447 509 571 633 695 758 802 882 944]
715,716,[ 94 182 270 359 446 530 616 702 787 873]
716,717,[ 63 122 181 275 341 404 466 531 622 689 777 856 920]
717,718,[122 215 308 400 490 580 669 757 846 935]
718,719,[ 64 176 288 402 513 626 739 851]
719,720,[ 92 187 288 387 480 582 679 776 872]
720,721,[ 74 154 240 324 408 493 578 663 747 836 921]
721,722,[108 388 518 676 853]
722,723,[ 54 135 216 297 378 459 540 621 702 783 865 946]
723,724,[ 58 137 216 295 371 447 524 602 680 760 840 920]
724,725,[131 215 297 378 455 557 651 746 837 930]
725,726,[ 61 134 205 279 354 431 507 584 658 732 804 879]
726,727,[ 34 123 196 297 386 472 558 644 731 818 906]
727,728,[ 72 156 238 326 410 495 577 663 746 831 915]
728,729,[ 40 138 233 332 427 517 608 699 787 868]
729,730,[ 76 149 219 287 354 422 491 559 627 694 763 831 898]
730,731,[ 90 229 299 364 428 518 589 697 809]
731,732,[ 33 112 193 275 358 439 521 603 687 771 855 937]
732,733,[ 88 193 298 409 517 621 729 835 937]
733,734,[ 94 165 234 303 370 436 501 566 634 701 768 838 908]
734,735,[ 37 127 222 314 409 502 594 685 780 870]
735,736,[ 32 128 230 324 422 522 615 709 808 904]
736,737,[ 92 163 233 304 375 444 515 585 655 726 796 868 939]
737,738,"[ 56 108 150 204 251 297 343 391 431 484 524 579 620 672 713 767 807 862
 902]"
738,739,[ 80 171 262 354 442 536 625 718 808 902]
739,740,[ 75 163 255 346 434 526 616 704 789 876]
740,741,[ 38 114 189 264 340 413 491 564 639 714 790 863 938]
741,742,[ 94 174 255 335 412 489 567 645 722 801 881]
742,743,[ 34 106 178 250 321 391 464 537 608 680 752 824 894]
743,744,[ 51 124 201 274 352 425 499 572 645 719 796 869 943]
744,745,[ 51 142 233 321 409 493 579 668 757 846 935]
745,746,[140 191 293 350 448 520 594 670 718 831 880]
746,747,[ 36 100 165 228 296 359 427 494 560 627 693 756 821 888]
747,748,[ 98 184 272 358 445 532 617 703 789 874]
748,749,[ 31 101 170 243 317 391 469 545 623 697 778 857 936]
749,750,[ 42 123 205 287 350 441 523 602 683 763 845 926]
750,751,[100 197 294 393 488 588 683 778 878]
751,752,[ 35 133 230 329 430 528 625 721 819 919]
752,753,[124 223 321 418 520 619 715 812 908]
753,754,[130 230 330 430 529 625 727 825 925]
754,755,[ 87 180 272 363 456 549 643 735 828 923]
755,756,[ 67 153 229 328 416 491 590 675 751 851 902 939]
756,757,[ 66 149 268 343 395 466 563 646 706 760 808 861 911]
757,758,[ 46 167 284 398 514 629 743 851]
758,759,[ 85 151 217 280 349 402 471 518 571 638 701 773 848 909]
759,760,[ 99 191 285 375 466 555 644 734 823 916]
760,761,"[ 33  74 136 175 245 300 357 430 484 550 594 632 670 708 750 804 862 902
 938]"
761,762,[102 226 349 473 592 710 828]
762,763,[ 71 159 250 306 410 498 585 669 754 811 918]
763,764,[ 99 189 277 366 457 547 637 727 819 911]
764,765,[ 71 186 305 422 541 666 787 908]
765,766,[ 63 116 194 265 321 394 451 544 627 685 756 828 883]
766,767,[ 59 161 265 371 476 582 685 789 892]
767,768,[ 88 192 296 400 505 608 711 813 916]
768,769,[138 211 285 363 440 518 601 681 765 846 929]
769,770,[ 83 165 246 328 408 491 571 650 732 819 905]
770,771,[145 280 410 543 673 806 940]
771,772,[ 91 167 244 320 397 477 558 637 715 793 873 949]
772,773,[ 33 153 262 381 492 599 723 834 944]
773,774,[ 75 148 222 306 384 462 540 623 707 793 878]
774,775,[126 235 340 445 556 666 780 895]
775,776,[108 195 280 365 451 541 633 727 822 914]
776,777,[ 98 185 271 362 451 540 629 717 807 900]
777,778,[ 56 141 241 332 419 508 603 698 785 878]
778,779,[129 235 340 444 546 645 746 846 945]
779,780,[ 77 141 206 277 347 414 484 556 624 690 758 824 885 948]
780,781,[128 230 330 429 529 626 722 821 923]
781,782,[ 60 157 255 351 445 541 637 735 833 930]
782,783,[ 39 111 181 250 319 387 454 521 588 656 724 790 856 924]
783,784,[ 46 112 176 238 304 368 434 500 564 626 687 749 811 874 943]
784,785,[ 83 158 239 323 407 488 569 654 744 833 929]
785,786,[ 95 176 258 339 418 498 580 661 742 824 907]
786,787,[ 99 175 250 328 402 481 561 640 726 811 896]
787,788,[ 47 156 264 376 482 588 697 803 911]
788,789,[ 80 147 214 282 349 417 484 550 617 683 750 816 882 948]
789,790,[126 225 328 441 537 637 745 838 939]
790,791,[ 39 116 195 275 354 430 502 577 650 725 799 878]
791,792,[ 47 160 269 382 494 608 725 841]
792,793,[104 190 268 349 428 503 577 648 724 809 898]
793,794,[118 210 303 394 482 573 665 761 858]
794,795,[ 62 142 222 300 383 464 545 626 707 787 864 945]
795,796,[ 63 134 204 275 318 417 488 560 631 702 773 816 914]
796,797,[ 94 191 288 384 480 574 665 759 851 946]
797,798,[ 91 160 203 279 343 408 451 528 593 636 708 773 829 882]
798,799,[ 78 159 240 322 404 487 569 653 738 823 909]
799,800,"[ 68 116 165 213 262 310 358 406 454 503 551 599 648 697 745 793 842 890
 939]"
800,801,[ 40 163 294 418 542 665 794 922]
801,802,[ 82 146 214 282 352 416 481 547 607 670 730 790 850 912]
802,803,[ 59 160 255 355 459 561 660 761 864]
803,804,[ 81 154 227 302 376 450 524 595 666 738 810 882]
804,805,[ 37 121 204 285 368 453 539 624 709 795 881]
805,806,[ 52 132 215 301 387 478 573 662 751 840 924]
806,807,[ 41 100 158 216 274 331 388 446 503 561 618 676 734 792 851 893]
807,808,[ 67 145 226 307 390 474 559 642 722 801 882]
808,809,[ 94 190 287 383 482 579 676 770 865]
809,810,[ 67 142 218 295 374 455 537 618 696 772 846 919]
810,811,[ 88 152 222 292 365 438 510 584 657 731 804 880]
811,812,[ 76 176 275 381 490 587 688 801 914]
812,813,[ 90 199 308 407 513 620 728 836 940]
813,814,[ 45 105 166 226 286 346 406 467 529 590 651 712 774 836 899]
814,815,[ 47 133 224 318 412 502 591 680 769 856 941]
815,816,[ 46 102 220 318 375 498 590 650 759 848 939]
816,817,[ 70 143 214 285 357 429 500 572 643 713 784 856 926]
817,818,[ 56 122 188 254 328 412 497 577 659 750 794 922]
818,819,[ 77 157 236 317 400 484 567 648 728 809 890]
819,820,[ 38 137 189 258 302 364 425 488 545 599 656 697 738 796 858 917]
820,821,[ 73 148 225 302 379 456 535 613 690 768 846 924]
821,822,[ 39 104 168 232 297 360 425 489 554 618 682 746 810 874 937]
822,823,[138 281 344 525 665 807 866]
823,824,[ 54 132 209 288 371 451 532 616 699 781 860 940]
824,825,[ 64 141 200 282 343 394 454 524 606 676 749 798 913]
825,826,[138 239 352 459 531 659 782 891]
826,827,[ 68 130 191 253 315 377 440 503 565 628 691 752 814 875 936]
827,828,[ 52 153 214 273 322 363 420 489 531 584 648 719 788 859 903]
828,829,[ 58 154 249 340 430 518 568 677 737 797 904]
829,830,[ 64 143 222 301 380 458 537 619 696 777 856 936]
830,831,[ 85 153 218 283 349 416 484 551 619 687 754 821 887]
831,832,[ 72 133 193 253 316 381 444 507 569 633 699 769 836 900]
832,833,[ 35 110 172 235 300 347 425 488 550 613 662 739 802 865 927]
833,834,[ 34 121 207 292 378 461 549 634 720 805 887]
834,835,[120 245 365 480 595 718 839]
835,836,[ 69 166 268 371 461 553 652 755 864]
836,837,[119 206 298 384 473 564 658 745 834 925]
837,838,[ 67 178 291 407 524 627 725 835 946]
838,839,[ 81 154 227 302 376 447 521 593 665 739 812 887]
839,840,[ 32 115 199 281 363 444 525 605 685 764 843 922]
840,841,[130 234 339 440 497 623 729 826 929]
841,842,[ 84 171 258 345 433 520 608 695 782 870]
842,843,[ 50 126 201 277 351 429 506 583 661 738 816 894]
843,844,[ 42 118 195 274 353 432 509 587 667 746 823 901]
844,845,[ 97 192 287 382 479 578 676 775 875]
845,846,[ 64 125 184 267 358 445 508 591 705 787 918]
846,847,[ 51 131 213 297 377 452 539 624 704 782 867]
847,848,[ 53 152 253 356 457 557 655 754 857]
848,849,[ 71 130 189 248 307 366 424 483 542 601 660 719 778 837 896]
849,850,[ 75 174 274 372 470 569 668 768 866]
850,851,[ 80 163 246 328 410 493 575 657 740 823 906]
851,852,[104 220 342 465 580 701 822 939]
852,853,[ 39 130 217 308 395 486 572 664 753 845 932]
853,854,[ 87 178 271 364 456 546 639 727 813 897]
854,855,"[ 56 104 151 199 247 293 342 389 436 482 531 577 626 673 720 767 815 861
 910]"
855,856,[ 52 136 219 303 387 470 554 639 723 805 888]
856,857,"[ 59 106 151 198 245 293 340 385 433 478 524 572 618 664 709 755 801 849
 895 941]"
857,858,"[ 35  76 116 157 192 237 282 323 363 399 444 480 520 561 601 646 686 722
 767 803 843 888 924]"
858,859,"[ 56 104 155 207 250 296 354 400 472 516 557 610 660 714 757 798 839 904
 946]"
859,860,[ 31  88 143 198 252 308 366 421 475 527 583 636 691 744 797 851 905]
860,861,[102 196 263 375 467 535 648 741 812 923]
861,862,[ 64 152 240 323 418 502 591 681 776 865]
862,863,[ 87 191 301 403 503 605 701 793 887]
863,864,[ 83 171 222 314 388 459 528 599 670 742 815 889]
864,865,[ 63 156 249 344 442 539 638 737 837 936]
865,866,[ 33  89 162 235 300 365 420 476 569 637 738 809 869 933]
866,867,[ 62 158 258 357 457 556 660 761 860]
867,868,[ 43 127 213 297 381 464 547 630 714 796 877]
868,869,[ 97 165 240 315 391 466 543 619 695 770 846 921]
869,870,[ 91 186 280 373 469 563 658 752 848 942]
870,871,[ 43 117 183 254 326 402 474 540 615 680 746 815 880 946]
871,872,[ 35 132 227 322 393 465 584 659 733 812 945]
872,873,[ 71 157 244 331 418 504 589 676 764 851 937]
873,874,[ 87 152 216 280 344 409 474 539 603 667 731 796 860 925]
874,875,[ 44 126 208 289 369 451 533 615 696 778 860 943]
875,876,[ 82 194 305 416 527 637 748 859]
876,877,[ 69 146 223 297 368 437 507 579 652 728 804 879]
877,878,[ 82 162 242 322 404 485 565 646 727 810 891]
878,879,[ 93 175 256 335 416 499 580 659 737 819 900]
879,880,[ 56 136 216 293 373 452 530 609 688 766 843 922]
880,881,[ 88 166 240 312 399 492 587 678 763 852 944]
881,882,[ 31  65 149 225 294 339 412 480 526 583 632 706 773 817 888]
882,883,[ 46 143 238 337 436 533 626 727 830 934]
883,884,[ 33 104 178 251 320 389 464 534 608 679 750 824 900]
884,885,[ 94 192 290 382 476 570 667 754 844 943]
885,886,[ 96 165 238 310 380 451 524 596 669 740 811 884]
886,887,[ 83 141 200 258 316 374 432 490 548 606 664 722 781 839 897]
887,888,[ 52 148 257 347 450 541 645 746 835 943]
888,889,[110 206 301 394 489 580 673 764 857 949]
889,890,[ 32 111 188 267 343 423 501 578 657 735 813 891]
890,891,[ 88 178 267 360 452 543 633 723 810 900]
891,892,[ 60 135 190 245 301 356 413 467 525 581 639 697 757 814 874 931]
892,893,[ 36 132 219 304 375 472 557 642 714 808 894]
893,894,[ 65 125 173 228 308 374 440 503 566 627 692 755 818 880 941]
894,895,[113 198 283 353 449 534 618 687 782 865]
895,896,[ 46 103 207 297 385 474 530 634 720 806 893]
896,897,[ 42 137 226 312 400 484 571 661 757 853 947]
897,898,[ 87 190 292 391 492 595 696 797 900]
898,899,[ 92 177 262 350 431 507 584 660 735 807 882]
899,900,[ 74 159 236 313 388 462 539 615 688 765 837 911]
900,901,[ 57 132 207 284 360 436 511 587 664 740 816 892]
901,902,[ 89 167 245 320 397 475 549 625 704 781 855 934]
902,903,[ 67 139 212 284 355 428 499 569 639 710 780 850 919]
903,904,[ 87 189 296 407 513 625 732 839]
904,905,[ 60 128 196 264 329 395 461 529 594 659 724 793 860 931]
905,906,[ 59 127 192 259 325 392 458 525 590 656 723 790 857 922]
906,907,[ 49 120 181 280 342 435 512 589 666 741 818 895]
907,908,[ 57 141 223 308 385 460 531 588 653 731 825 912]
908,909,[ 35  98 158 224 288 351 413 472 536 598 660 723 788 851 914]
909,910,[ 48 122 196 269 341 414 488 561 634 706 779 853 926]
910,911,[ 63 156 247 338 427 523 616 702 789 876]
911,912,[120 211 302 394 486 577 668 759 850 941]
912,913,[114 204 303 401 498 591 684 780 880]
913,914,[ 58 102 210 290 334 442 521 600 675 755 799 906]
914,915,[ 34 111 188 263 341 418 483 574 652 729 806 884]
915,916,[101 193 283 374 464 553 644 735 826 918]
916,917,[ 46 117 188 260 332 405 477 550 623 697 770 843 918]
917,918,[ 67 147 227 307 387 465 543 622 701 779 857 935]
918,919,[ 86 190 296 403 511 620 726 832 937]
919,920,[ 95 229 370 501 626 753 886]
920,921,[121 225 324 420 516 609 699 797 901]
921,922,[ 93 164 237 306 378 448 517 589 661 733 804 877 947]
922,923,[ 51 139 224 305 403 477 566 652 746 839 928]
923,924,[ 51 106 161 216 272 326 381 436 492 546 601 656 712 767 821 876 932]
924,925,[ 88 184 269 375 466 560 656 748 841 936]
925,926,[ 81 162 245 324 405 488 566 646 729 809 887]
926,927,[ 85 164 243 323 402 482 564 646 729 811 895]
927,928,[ 75 149 224 298 374 448 522 596 669 747 824 901]
928,929,[ 95 188 279 370 456 539 624 712 800 888]
929,930,[ 72 145 221 292 366 437 508 579 652 723 799 872 943]
930,931,[110 207 301 400 499 595 695 799 908]
931,932,[ 47 104 163 221 280 341 400 462 523 584 645 707 768 831 892]
932,933,[ 67 146 226 309 396 486 576 665 754 842 926]
933,934,[ 82 166 252 339 425 511 598 683 768 856 943]
934,935,[ 78 175 271 369 462 551 640 731 822 916]
935,936,[117 211 301 393 492 582 674 768 867]
936,937,[ 51 117 183 249 317 384 450 517 585 652 721 788 856 923]
937,938,[ 55 122 183 245 309 374 440 508 575 636 699 765 829 893]
938,939,[ 62 151 207 331 401 464 534 611 673 726 802 880]
939,940,[ 37 143 235 325 413 500 586 673 760 847 933]
940,941,[ 82 156 229 302 374 447 520 593 666 740 815 889]
941,942,"[ 59  91 125 158 193 228 267 308 344 376 412 444 478 514 550 585 620 658
 694 727 765 800 839 875 909 942]"
942,943,"[ 57 105 156 203 252 305 352 402 452 502 551 603 652 701 750 797 846 895
 944]"
943,944,[112 220 329 437 544 653 762 870]
944,945,[ 75 138 201 265 329 393 458 522 587 651 715 779 843 906]
945,946,[100 174 230 325 403 480 557 632 705 777 850 925]
946,947,[ 99 181 262 344 424 505 586 668 752 837 921]
947,948,[ 52 126 200 277 349 424 493 567 638 713 791 864 940]
948,949,[103 197 290 384 478 572 663 755 849 941]
949,950,[ 46 130 209 293 379 464 549 636 723 809 896]
950,951,[ 94 169 245 323 401 480 559 633 705 780 854 926]
951,952,[ 38 117 192 272 346 425 499 578 654 730 803 878]
952,953,[ 81 148 216 283 349 416 485 552 618 687 753 821 888]
953,954,[ 85 179 272 364 457 546 640 737 831 926]
954,955,[ 94 164 221 297 363 430 500 562 632 701 771 836 906]
955,956,[147 234 317 453 559 620 770 883 939]
956,957,[ 49 130 211 290 369 448 529 609 690 770 849 927]
957,958,[ 46 132 217 298 383 473 565 654 743 835 926]
958,959,[131 280 428 578 728 877]
959,960,[ 39 117 196 276 357 438 519 600 681 762 843 925]
960,961,[ 92 171 251 332 411 491 570 650 727 805 883]
961,962,[ 94 171 248 325 402 476 555 632 709 786 862 939]
962,963,"[ 68 114 158 215 263 309 348 393 444 489 546 590 633 673 717 783 830 888
 937]"
963,964,[ 74 176 278 379 478 529 638 737 832 937]
964,965,[ 59 135 211 288 362 439 515 591 666 742 819 894]
965,966,[143 261 382 499 611 727 843]
966,967,[ 36 141 244 342 438 538 636 732 825 925]
967,968,[ 45 125 209 297 385 474 564 655 745 835 926]
968,969,[ 65 116 168 219 270 321 372 423 474 525 576 626 677 727 778 828 878 928]
969,970,[ 91 154 217 278 340 401 463 525 586 648 710 771 833 894]
970,971,[ 32 107 185 262 339 415 492 568 646 723 798 875]
971,972,[ 66 144 218 291 362 442 523 600 675 758 838 916]
972,973,[ 48 133 219 303 388 473 558 642 727 811 896]
973,974,[ 91 185 279 372 466 559 653 748 842 936]
974,975,[ 94 182 273 362 541 627 713 801 881]
975,976,[ 58 119 176 236 297 358 415 475 538 596 654 713 770 829 887 945]
976,977,[ 77 150 227 304 380 453 524 595 663 735 811 887]
977,978,[ 60 114 168 219 263 324 380 434 485 538 591 643 698 752 803 857 911]
978,979,[ 37 106 175 244 311 378 447 516 585 652 720 788 857 927]
979,980,[ 87 186 283 383 489 595 697 794 894]
980,981,[ 66 136 205 274 344 416 486 557 629 699 768 835 903]
981,982,[125 221 316 410 503 594 687 782 876]
982,983,[ 85 160 231 308 383 466 553 637 722 804 891]
983,984,[ 55 156 260 363 461 558 653 746 841 937]
984,985,[ 43 112 190 268 316 428 502 579 656 731 810 890]
985,986,[ 37 121 198 282 365 449 531 615 700 785 868]
986,987,[ 50 179 252 333 375 480 524 616 679 726 821 887 927]
987,988,[ 61 146 230 313 393 474 557 640 724 807 892]
988,989,[ 54 132 206 286 366 447 527 606 684 762 839 918]
989,990,[ 42 133 227 321 413 504 596 686 777 869]
990,991,[102 205 308 412 517 624 728 830 933]
991,992,[ 45 108 176 251 326 403 479 553 628 702 772 840 905]
992,993,[ 34 103 174 244 314 384 454 523 595 665 734 803 873 942]
993,994,[ 50 122 196 269 343 417 490 564 639 713 787 860 931]
994,995,[ 58 109 159 210 260 310 361 411 462 513 563 614 665 715 766 816 867 918]
995,996,[ 90 158 226 293 358 424 493 561 628 695 760 825 894]
996,997,[ 41 148 256 361 466 573 680 785 889]
997,998,[ 46 136 225 310 395 480 564 649 702 823 909]
998,999,[133 240 346 456 565 675 783 890]
999,1000,[ 97 189 284 379 475 569 659 754 848 941]
1000,1001,[120 213 305 398 490 583 676 767 859]
1001,1002,[ 37 136 233 328 422 518 615 708 802 897]
1002,1003,[ 77 145 215 284 353 422 491 561 632 703 773 821 913]
1003,1004,[ 85 163 241 287 404 480 558 638 720 804 888 938]
1004,1005,[ 90 181 276 368 460 551 642 732 823 914]
1005,1006,[ 55 176 295 416 536 655 776 896]
1006,1007,[ 74 130 184 242 301 362 424 489 552 613 673 732 792 851 909]
1007,1008,[102 207 309 409 511 614 713 813 916]
1008,1009,[ 87 177 267 359 451 540 627 714 801 890]
1009,1010,[ 41 128 218 309 400 488 580 675 769 857 946]
1010,1011,[ 58 126 192 259 317 394 469 541 611 682 758 837 913]
1011,1012,[ 80 152 225 274 339 416 488 536 598 667 704 742 801 894 942]
1012,1013,[ 64 155 242 331 420 507 595 685 772 857 949]
1013,1014,[ 66 127 185 242 300 357 414 471 529 641 702 761 819 877 934]
1014,1015,[ 64 145 224 303 385 467 550 633 716 795 876]
1015,1016,[ 41 142 244 347 447 548 653 757 862]
1016,1017,[ 38 126 195 300 363 453 501 596 675 762 842 908]
1017,1018,[ 90 150 218 288 357 427 499 568 642 713 782 848 909]
1018,1019,[ 92 188 266 350 436 522 609 692 772 854]
1019,1020,[ 71 117 234 313 395 475 557 639 720 802 885]
1020,1021,[ 65 127 189 251 313 375 438 500 563 625 688 750 813 875 938]
1021,1022,[ 85 187 289 390 492 594 697 799 901]
1022,1023,[ 44 144 246 348 448 554 666 773 889]
1023,1024,[ 46 135 219 308 384 466 552 631 709 796 874]
1024,1025,[ 99 192 285 377 468 563 657 750 842 943]
1025,1026,[ 70 126 182 230 314 374 417 480 522 588 645 706 765 828 879 934]
1026,1027,[ 32 115 198 283 368 449 531 613 696 778 861 944]
1027,1028,[ 77 149 221 293 366 440 511 583 655 727 797 866 936]
1028,1029,[ 35 159 280 400 524 644 764 885]
1029,1030,[ 51 117 182 247 313 378 443 507 571 638 711 776 843 910]
1030,1031,[ 89 172 255 338 422 507 593 679 764 847 930]
1031,1032,[ 67 141 217 288 363 439 515 594 671 746 822 901]
1032,1033,"[ 37  84 131 178 225 273 320 368 415 463 509 557 604 651 699 746 793 840
 888 935]"
1033,1034,[ 75 190 305 422 537 653 768 881]
1034,1035,[ 45 164 283 392 498 606 717 827 934]
1035,1036,[ 83 143 201 263 314 387 449 496 553 630 691 752 816 879 941]
1036,1037,[ 61 143 221 299 377 452 519 586 657 736 818 898]
1037,1038,[ 42 121 199 278 361 438 514 590 668 749 831 912]
1038,1039,[131 251 312 405 500 614 746 806 923]
1039,1040,[ 54  99 207 281 354 425 498 571 644 719 792 867 941]
1040,1041,[ 47 128 211 291 371 452 534 613 691 769 849 930]
1041,1042,[ 42 134 226 321 420 520 620 724 829 935]
1042,1043,[ 71 159 248 340 431 524 615 705 794 883]
1043,1044,[ 46 111 188 258 326 400 474 538 610 683 748 825 897]
1044,1045,[ 40 115 188 261 337 410 484 560 635 711 785 861 937]
1045,1046,[ 46 108 170 232 295 359 423 486 549 598 672 722 798 859 923]
1046,1047,[ 60 169 277 384 489 604 718 825 934]
1047,1048,[ 61 129 195 263 331 398 466 534 602 670 739 807 876 945]
1048,1049,[ 88 159 231 293 368 437 508 583 672 760 849 935]
1049,1050,[140 254 363 472 582 691 798 906]
1050,1051,[ 46 139 226 319 408 496 582 673 761 849 935]
1051,1052,[ 37  81 143 210 259 301 364 427 469 512 572 638 708 774 841 889 948]
1052,1053,[173 262 376 470 547 613 729 870]
1053,1054,[ 38 151 262 369 476 585 687 780 878]
1054,1055,[ 48 101 153 206 258 311 363 416 468 521 574 629 683 736 790 844 898]
1055,1056,[ 58 142 228 313 399 484 571 658 745 833 920]
1056,1057,[ 38 102 165 229 295 363 438 526 614 694 777 860 910]
1057,1058,[ 89 177 264 353 442 531 620 707 793 876]
1058,1059,[ 50 137 232 323 411 496 582 678 775 862]
1059,1060,[ 42 132 222 313 403 473 581 676 766 853 945]
1060,1061,[139 235 329 428 526 628 763 883]
1061,1062,[ 72 137 211 280 349 417 485 553 621 689 757 826 895]
1062,1063,[ 38 107 174 241 309 378 446 516 586 656 725 793 860 925]
1063,1064,[111 206 301 398 494 589 685 783 883]
1064,1065,[166 299 411 542 653 801]
1065,1066,[ 44 117 198 273 357 431 514 590 676 753 831 914]
1066,1067,[ 55 134 215 296 380 466 549 632 713 792 870]
1067,1068,[ 50 116 182 246 329 411 492 568 645 721 795 867 937]
1068,1069,[112 197 282 366 448 529 612 696 781 866]
1069,1070,[ 39 118 198 253 357 434 510 585 660 735 812 888]
1070,1071,[ 96 193 288 384 480 570 662 753 851]
1071,1072,[ 56 142 229 317 405 493 580 666 753 842 931]
1072,1073,[ 38 176 312 442 580 720 851]
1073,1074,[ 61 115 169 222 276 328 385 439 491 548 601 653 710 762 819 871 925]
1074,1075,[ 69 197 323 452 578 704 830]
1075,1076,[ 38 115 195 278 359 436 514 593 672 751 827 905]
1076,1077,[124 233 357 452 577 660 759 885]
1077,1078,[ 91 162 233 304 374 448 520 591 665 738 809 881]
1078,1079,[115 211 307 404 502 601 699 796 893]
1079,1080,[ 81 166 252 336 421 505 592 678 766 852 938]
1080,1081,[ 93 170 248 327 404 484 563 641 719 797 875]
1081,1082,[ 36 127 218 266 309 355 403 500 593 683 775 868]
1082,1083,[ 40 110 181 250 321 393 463 532 603 672 744 813 883]
1083,1084,[ 47 123 198 272 346 420 494 544 642 714 785 832 911]
1084,1085,[ 42 135 228 319 407 497 594 690 788 885]
1085,1086,[ 66 158 250 339 434 524 612 697 783 873]
1086,1087,[ 57 159 218 279 337 379 501 553 597 743 840 934]
1087,1088,[ 55 131 208 283 357 433 507 581 654 726 802 876 948]
1088,1089,[ 52 149 242 339 433 528 623 716 811 906]
1089,1090,[ 99 193 288 382 475 569 663 757 851 947]
1090,1091,[ 58 146 232 323 415 501 588 678 768 854 944]
1091,1092,[ 75 167 256 340 421 502 591 676 759 833 916]
1092,1093,[109 198 285 373 461 550 637 725 813 901]
1093,1094,[ 82 193 311 429 539 654 770 884]
1094,1095,[ 91 183 278 380 482 588 690 787 886]
1095,1096,[ 74 158 240 320 401 480 557 635 711 790 870 947]
1096,1097,[111 218 328 441 548 653 765 877]
1097,1098,[ 71 142 212 282 353 424 498 572 647 720 793 866 940]
1098,1099,[ 54 133 206 296 382 464 549 635 715 809 901]
1099,1100,[ 50 118 191 262 330 400 473 545 614 688 759 830 900]
1100,1101,[108 189 271 354 434 515 596 678 758 837 917]
1101,1102,[ 54 152 252 353 452 555 659 764 870]
1102,1103,[109 194 281 322 367 452 536 622 710 798 883]
1103,1104,[ 67 148 226 303 375 446 515 580 649 724 831 916]
1104,1105,[ 64 154 245 335 428 522 612 704 796 886]
1105,1106,[ 59 115 169 223 277 333 390 444 497 550 606 661 714 767 820 874 927]
1106,1107,[114 222 330 437 544 652 760 865]
1107,1108,[ 95 169 244 317 361 464 538 611 685 762 840 921]
1108,1109,[ 51 113 176 238 301 363 425 488 550 612 674 737 799 862 925]
1109,1110,[ 41 108 227 345 502 573 647 720 809 890]
1110,1111,[ 78 130 184 233 315 363 440 494 560 607 674 723 798 861 916]
1111,1112,[ 62 130 209 302 397 481 562 636 716 802 891]
1112,1113,[108 200 292 383 473 560 646 732 819 907]
1113,1114,[ 66 157 245 329 418 501 581 670 755 840 933]
1114,1115,[ 48 121 191 260 337 439 526 618 703 787 865 938]
1115,1116,[105 202 291 377 472 562 652 742 828 916]
1116,1117,[ 54 151 249 350 454 555 658 761 858]
1117,1118,[ 95 196 295 382 471 565 683 797 909]
1118,1119,[ 98 184 269 358 456 555 645 738 826 911]
1119,1120,[109 216 320 426 531 637 741 845]
1120,1121,[ 67 169 267 371 477 577 679 779 876]
1121,1122,[ 76 170 261 357 450 539 628 723 812 903]
1122,1123,[110 196 281 366 458 540 632 713 801 889]
1123,1124,[109 203 305 406 493 583 691 794 890]
1124,1125,[ 69 141 212 283 359 433 505 578 652 726 801 873 945]
1125,1126,[ 41 173 289 417 553 666 766 894]
1126,1127,[ 71 151 229 306 383 462 541 620 699 776 854 931]
1127,1128,[ 98 193 289 384 479 574 669 762 856]
1128,1129,[ 71 161 250 340 429 516 604 644 694 777 866]
1129,1130,[ 65 138 211 286 360 431 504 577 652 722 796 867 941]
1130,1131,[ 67 137 207 277 345 415 482 550 616 682 746 809 872 935]
1131,1132,[ 94 179 270 355 451 536 626 711 804 887]
1132,1133,[ 47 113 181 249 318 385 452 518 584 649 714 780 844 908]
1133,1134,[142 254 362 471 545 674 784 890]
1134,1135,[ 99 201 303 404 507 609 711 813 915]
1135,1136,[ 91 152 214 276 339 400 462 523 585 646 708 770 831 893]
1136,1137,[109 202 295 386 479 571 665 758 851 942]
1137,1138,[ 91 177 265 354 441 529 617 707 793 880]
1138,1139,[120 229 333 435 542 649 754 856]
1139,1140,[102 187 271 355 439 524 609 694 778 862 946]
1140,1141,[ 52 138 222 307 393 480 568 656 740 825 911]
1141,1142,[ 65 158 249 341 435 527 620 713 808 904]
1142,1143,[ 76 175 271 379 483 589 691 795 903]
1143,1144,[ 56 138 221 304 385 464 546 627 709 788 868 949]
1144,1145,[ 39 142 245 347 449 550 652 754 855]
1145,1146,[ 72 143 215 288 362 435 508 579 651 723 790 860 931]
1146,1147,[ 51 148 245 341 433 529 625 721 815 911]
1147,1148,[ 90 179 271 365 457 547 638 728 820 911]
1148,1149,[ 76 145 214 282 348 414 481 550 619 688 757 825 893]
1149,1150,[123 218 313 407 499 591 683 771 861]
1150,1151,[131 236 341 444 550 655 758 863]
1151,1152,[107 201 259 391 485 576 630 763 855 944]
1152,1153,[ 43 127 210 293 376 460 543 626 709 790 874]
1153,1154,[ 74 166 259 350 444 531 617 705 790 882]
1154,1155,[ 88 173 258 343 428 513 598 684 769 854 940]
1155,1156,[ 33 114 195 272 347 432 512 585 665 744 823 908]
1156,1157,[ 38  75 169 233 296 359 422 485 555 617 673 736 799 869 931]
1157,1158,[ 63 125 178 224 291 349 406 464 519 578 636 694 738 806 866 923]
1158,1159,[ 56 119 183 235 282 328 377 423 470 518 566 615 669 732 809 895]
1159,1160,[ 84 175 265 356 444 533 619 701 780 860 941]
1160,1161,[ 84 173 262 349 436 523 611 698 785 871]
1161,1162,[ 45 130 207 283 363 436 512 587 661 735 809 884]
1162,1163,[ 70 142 214 286 357 429 501 573 645 718 790 863 936]
1163,1164,"[ 33  83 116 158 189 229 267 302 372 430 474 530 587 623 699 732 775 812
 857 926]"
1164,1165,[ 35 140 243 342 438 526 613 699 756 883]
1165,1166,[ 50 201 334 481 610 767 897]
1166,1167,[ 93 201 301 407 517 624 729 837 948]
1167,1168,[ 72 242 307 383 437 600 768 937]
1168,1169,[107 189 274 358 443 527 611 695 778 857 935]
1169,1170,[ 76 180 280 375 467 567 673 779 879]
1170,1171,[ 78 177 241 321 405 498 576 667 741 815 911]
1171,1172,[ 69 154 236 318 402 488 572 655 740 827 913]
1172,1173,"[ 31  67 103 139 175 212 249 286 322 358 394 430 467 504 541 577 613 649
 685 722 759 796 832 868 905 941]"
1173,1174,[ 96 180 264 348 432 517 600 683 768 853 938]
1174,1175,[ 60 144 230 319 410 503 591 675 759 845 932]
1175,1176,[ 65 162 266 360 467 571 663 767 861]
1176,1177,[ 77 173 265 356 451 551 649 746 847 945]
1177,1178,[ 40 107 170 235 293 370 427 493 553 664 725 793 869 916]
1178,1179,[ 79 188 272 355 436 509 587 683 771 858]
1179,1180,[ 40 100 159 218 278 338 398 458 517 577 637 697 756 815 875 935]
1180,1181,[117 225 331 435 543 648 753 861]
1181,1182,[109 199 289 380 471 562 652 743 833 919]
1182,1183,[ 74 147 217 289 359 431 501 573 644 715 786 855 927]
1183,1184,[ 41 126 181 236 320 373 422 490 557 625 695 787 885]
1184,1185,[ 88 173 257 342 429 516 601 686 771 855 939]
1185,1186,[ 46 162 279 396 516 626 741 864]
1186,1187,[ 60 126 191 255 320 385 451 516 580 645 710 774 838 901]
1187,1188,[105 194 282 370 458 546 634 721 809 896]
1188,1189,[ 57 162 216 377 484 590 643 805 912]
1189,1190,[ 54 141 227 312 398 481 564 645 727 809 894]
1190,1191,[ 71 149 226 304 390 476 560 651 740 824 909]
1191,1192,[100 181 263 346 425 508 590 671 750 833 914]
1192,1193,[ 67 150 230 287 350 407 475 564 677 795 896]
1193,1194,[ 39 129 220 312 405 494 581 669 760 852 942]
1194,1195,[ 87 169 254 339 423 505 591 676 760 843 927]
1195,1196,[ 51 141 232 325 419 508 592 676 758 844 934]
1196,1197,[ 34 101 168 235 316 402 492 576 652 726 799 878]
1197,1198,[ 66 157 249 339 425 517 607 696 783 871]
1198,1199,[ 50 164 274 388 503 619 735 847]
1199,1200,[ 76 195 317 434 533 673 789 907]
1200,1201,[ 90 170 239 305 391 472 553 621 704 788 869 933]
1201,1202,[ 31  94 158 221 288 354 421 487 553 618 687 753 820 886]
1202,1203,[ 35 129 191 266 319 365 415 466 561 624 677 721 769 823 871]
1203,1204,[ 42 106 174 240 305 373 438 504 571 634 701 768 837 906]
1204,1205,[ 83 155 227 298 371 444 517 591 665 740 814 889]
1205,1206,[ 81 187 297 410 520 632 745 860]
1206,1207,[ 43 148 254 361 467 572 680 787 892]
1207,1208,[ 77 151 227 301 377 453 530 605 681 757 831 906]
1208,1209,[ 92 193 292 391 493 593 684 774 866]
1209,1210,[ 36  91 145 198 253 307 361 414 469 523 574 632 685 739 792 845 901 943]
1210,1211,[ 79 203 326 442 553 661 772 885]
1211,1212,[107 200 294 389 484 579 672 766 859]
1212,1213,[ 67 155 243 331 418 505 593 681 768 855 943]
1213,1214,[ 63 117 171 225 277 334 388 442 494 549 603 656 710 764 816 871 925]
1214,1215,[ 87 159 230 302 377 450 522 596 671 747 821 893]
1215,1216,[ 72 197 326 451 577 702 832]
1216,1217,[ 84 146 207 268 330 391 453 515 576 637 698 760 822 884 945]
1217,1218,[ 50 127 204 290 370 453 532 611 695 780 861 945]
1218,1219,"[ 67 114 161 211 255 304 351 398 445 491 535 582 629 676 723 772 819 864
 914]"
1219,1220,[ 77 175 274 372 470 566 660 759 856]
1220,1221,[117 203 293 382 474 563 654 745 830 918]
1221,1222,[ 44 152 258 455 566 673 871]
1222,1223,[ 93 204 315 422 516 603 701 813 925]
1223,1224,[ 38 158 276 388 498 613 727 834 941]
1224,1225,[ 93 165 231 303 372 440 509 578 644 712 784 854 925]
1225,1226,[120 226 329 435 543 651 755 861]
1226,1227,[ 45 113 179 246 312 379 445 512 578 645 713 781 851 921]
1227,1228,[ 76 125 202 276 349 398 492 551 595 656 759 837 915]
1228,1229,[101 216 316 454 552 651 792 910]
1229,1230,[ 91 173 254 334 412 491 568 645 724 805 886]
1230,1231,[ 44 129 209 297 379 468 553 637 720 805 893]
1231,1232,[ 51 149 314 443 607 733 895]
1232,1233,[ 70 138 196 242 287 332 383 452 529 581 658 734 803 867 931]
1233,1234,[ 46  99 151 204 256 306 362 415 468 520 573 625 678 731 783 836 889 938]
1234,1235,[ 53 122 191 260 329 397 467 537 607 675 743 810 878 946]
1235,1236,[ 42 116 222 303 384 454 562 646 737 826 905]
1236,1237,[ 42 141 239 338 437 541 640 740 862]
1237,1238,[111 201 287 373 463 555 656 739 829 928]
1238,1239,[ 68 174 279 383 487 592 698 804 910]
1239,1240,[110 217 313 440 555 672 771 897]
1240,1241,[ 84 151 217 284 353 425 498 571 642 713 781 848 917]
1241,1242,[ 68 149 234 317 399 482 565 651 735 822 906]
1242,1243,[ 54 150 247 346 447 545 643 739 837 933]
1243,1244,[116 217 318 413 505 592 682 784 889]
1244,1245,[ 32 140 239 324 411 505 604 708 811 912]
1245,1246,[ 49 161 281 396 501 617 723 831 946]
1246,1247,[ 93 184 271 355 445 527 613 698 783 869]
1247,1248,[ 47 131 211 295 377 460 544 623 705 787 872]
1248,1249,[ 49 157 265 375 483 585 689 794 900]
1249,1250,[104 206 308 410 511 611 711 810 910]
1250,1251,[ 47 135 223 311 399 488 577 666 756 845 933]
1251,1252,[ 40 127 217 304 394 482 574 666 754 836 920]
1252,1253,[ 90 162 230 296 370 456 542 622 699 783 865 948]
1253,1254,[ 57 136 215 298 382 469 557 644 732 821 909]
1254,1255,[ 96 206 317 438 564 687 807 918]
1255,1256,[ 51 148 241 339 437 531 626 727 821 913]
1256,1257,[ 89 170 253 342 428 506 590 676 759 844 927]
1257,1258,[101 199 289 383 480 572 668 762 854 948]
1258,1259,[ 56 157 255 349 444 542 637 735 834 928]
1259,1260,[ 58 124 193 263 335 411 492 569 643 714 787 855 922]
1260,1261,[ 73 155 235 318 399 484 573 657 743 829 916]
1261,1262,[110 215 315 419 507 594 702 813 910]
1262,1263,[ 61 123 192 258 326 392 452 525 596 663 730 796 860 929]
1263,1264,[ 55 136 225 317 407 495 577 660 739 819 904]
1264,1265,[105 191 277 368 469 565 660 750 841 933]
1265,1266,[104 194 291 388 486 581 674 762 850 937]
1266,1267,[108 186 267 343 421 498 579 657 737 819 897]
1267,1268,[ 38 120 201 281 364 444 530 612 692 775 858 941]
1268,1269,[ 99 185 272 358 444 529 615 705 792 877]
1269,1270,[ 99 189 289 393 503 593 685 797 900]
1270,1271,[ 38 104 169 232 298 367 436 501 564 633 699 764 830 898]
1271,1272,[108 196 289 384 478 569 666 758 849 945]
1272,1273,[ 48 160 251 340 431 521 610 701 813 911]
1273,1274,[ 85 173 255 335 419 501 581 665 748 828 911]
1274,1275,[ 80 171 277 327 425 527 601 642 763 822 884]
1275,1276,[ 43 154 263 378 488 600 712 824 933]
1276,1277,[ 83 207 330 455 583 708 833]
1277,1278,[ 71 129 188 246 304 362 420 480 539 598 656 711 772 831 890 949]
1278,1279,[ 84 184 285 389 498 606 716 816 917]
1279,1280,[ 52 119 187 255 318 385 454 523 588 660 730 800 866 934]
1280,1281,[ 33 106 178 250 322 394 466 539 611 684 756 829 902]
1281,1282,[ 31 104 180 256 334 404 466 523 579 636 703 778 855 932]
1282,1283,[ 71 140 211 278 348 419 492 565 641 712 784 855 922]
1283,1284,[ 71 157 242 326 410 495 578 662 747 832 916]
1284,1285,[ 78 169 267 361 448 545 651 737 824 920]
1285,1286,[ 38 147 255 361 463 565 663 761 856]
1286,1287,[ 86 171 257 341 429 515 601 686 772 855 938]
1287,1288,[ 53 143 238 332 425 518 609 702 797 889]
1288,1289,[ 69 190 288 409 513 629 750 866]
1289,1290,[ 95 195 300 399 493 594 697 802 901]
1290,1291,[ 36 125 213 298 387 473 557 645 730 818 903]
1291,1292,[124 221 329 435 536 646 757 867]
1292,1293,[114 208 301 398 517 632 743 835 925]
1293,1294,[128 249 367 483 586 707 828 940]
1294,1295,[ 52 146 244 344 446 550 650 756 859]
1295,1296,[ 82 170 260 347 435 522 608 694 781 871]
1296,1297,[ 85 166 243 319 400 480 557 632 710 792 866 943]
1297,1298,[ 55 134 211 286 359 433 508 584 660 734 806 881]
1298,1299,"[ 31  72 114 157 199 241 284 328 371 413 454 495 537 579 622 664 708 752
 794 836 879 921]"
1299,1300,[ 93 183 272 370 464 558 654 748 841 934]
1300,1301,[ 96 166 236 308 385 458 535 609 681 754 825 904]
1301,1302,[ 97 189 277 362 451 535 618 703 786 862 946]
1302,1303,[ 70 139 209 280 350 420 490 561 632 705 781 855 930]
1303,1304,[ 54 192 325 455 575 707 836]
1304,1305,[ 74 142 211 278 346 415 481 549 614 681 749 818 888]
1305,1306,[ 83 167 251 339 439 533 629 726 821 911]
1306,1307,[ 80 170 254 343 431 514 598 681 767 856 942]
1307,1308,[119 197 282 380 475 568 661 745 828 917]
1308,1309,[ 54 168 279 389 501 613 724 834 945]
1309,1310,[ 34 111 186 267 346 425 502 578 656 736 815 891]
1310,1311,[108 194 275 355 445 541 630 714 799 882]
1311,1312,[ 53 167 264 377 501 603 703 817 930]
1312,1313,[101 173 246 316 391 467 546 624 697 770 848 919]
1313,1314,[120 235 343 444 557 665 771 870]
1314,1315,[ 59 153 236 320 400 477 550 632 710 792 876]
1315,1316,[ 35 119 199 280 360 439 517 597 678 755 834 917]
1316,1317,[ 33 100 168 236 304 371 440 508 575 640 710 777 844 910]
1317,1318,[ 38 121 196 275 371 473 569 669 770 862]
1318,1319,[ 60 140 221 297 379 458 532 607 686 771 846 924]
1319,1320,[ 93 191 293 387 484 581 678 777 881]
1320,1321,[115 170 242 353 473 528 601 710 829 884]
1321,1322,[ 43 126 212 295 378 462 545 629 712 795 880]
1322,1323,[110 197 286 373 457 544 627 713 793 877]
1323,1324,[ 34 102 169 236 304 371 439 506 574 642 710 777 845 913]
1324,1325,[ 46 115 172 254 321 391 461 513 600 670 736 809 878 948]
1325,1326,[ 40 132 225 317 409 501 593 685 776 868]
1326,1327,[ 71 139 209 278 348 418 488 558 628 699 769 840 910]
1327,1328,[ 70 132 196 258 321 385 448 510 573 634 696 757 818 880 942]
1328,1329,[ 41  98 158 215 270 330 385 445 501 559 618 676 735 794 853 914]
1329,1330,[102 182 261 340 419 497 575 651 728 806 883]
1330,1331,[111 194 277 359 442 525 607 687 764 848 929]
1331,1332,[ 62 145 226 311 396 476 562 645 726 811 894]
1332,1333,[ 51 140 230 319 407 496 587 678 766 855 947]
1333,1334,[ 37 128 247 364 473 590 711 821 912]
1334,1335,[ 38 115 192 271 349 428 506 585 665 744 824 903]
1335,1336,[101 188 276 365 450 537 624 710 795 882]
1336,1337,[136 246 360 475 587 702 817 924]
1337,1338,[ 77 153 230 306 383 461 538 615 691 767 843 919]
1338,1339,[ 57 143 188 312 405 494 583 672 760 826 938]
1339,1340,[112 199 286 379 475 573 663 754 852]
1340,1341,[ 75 171 266 359 455 551 647 745 843 937]
1341,1342,[ 36 118 197 277 358 439 520 601 683 766 848 930]
1342,1343,[ 96 175 255 333 409 482 554 628 709 791 874]
1343,1344,[ 43 126 210 303 392 485 572 660 750 843 932]
1344,1345,[121 234 359 471 583 709 819 947]
1345,1346,[110 203 303 404 500 600 703 808 912]
1346,1347,[112 224 362 481 595 701 807 917]
1347,1348,[ 44 135 229 322 413 499 590 687 777 869]
1348,1349,[ 83 152 223 300 382 468 553 634 712 788 861 932]
1349,1350,[ 88 185 264 343 466 578 680 790 900]
1350,1351,[ 93 202 314 426 536 645 756 868]
1351,1352,[ 64 142 222 306 386 467 545 621 695 771 848 928]
1352,1353,[ 86 185 285 387 489 590 689 791 893]
1353,1354,[131 234 333 433 540 644 742 835 935]
1354,1355,[106 191 276 362 447 531 612 697 784 867]
1355,1356,[ 54 142 230 321 411 503 594 681 769 859]
1356,1357,[ 66 153 241 330 418 505 592 679 766 853 939]
1357,1358,[ 87 168 253 335 419 502 587 673 759 846 931]
1358,1359,[ 39 146 252 368 487 605 721 837]
1359,1360,[ 38 123 200 277 355 428 503 582 657 730 806 880]
1360,1361,[ 79 167 256 346 435 523 615 705 792 879]
1361,1362,[ 83 175 267 358 442 528 574 694 743 858 938]
1362,1363,[108 185 262 339 418 497 575 655 732 811 891]
1363,1364,[ 34 142 249 356 463 574 681 787 889]
1364,1365,[ 98 186 284 380 472 568 665 753 839 927]
1365,1366,[ 86 153 223 291 360 433 506 574 644 719 779 868 934]
1366,1367,[ 44 134 223 312 403 497 591 692 800 900]
1367,1368,[ 36  98 160 222 284 347 410 473 535 598 660 722 785 849 914]
1368,1369,[ 35 109 184 258 332 407 482 557 632 707 782 857 931]
1369,1370,[118 210 297 388 477 565 656 746 835 928]
1370,1371,[ 57 100 151 201 259 310 354 412 463 514 558 615 666 710 768 812 870 914]
1371,1372,[ 42 111 181 251 321 390 460 530 600 668 738 807 878 947]
1372,1373,[ 71 179 286 397 501 611 720 827 934]
1373,1374,[ 56 125 196 263 332 401 471 543 613 683 753 821 893]
1374,1375,[ 50 105 163 220 280 335 392 452 510 565 625 680 738 798 856 911]
1375,1376,[ 79 178 276 374 470 564 660 757 855 949]
1376,1377,[101 199 294 389 487 587 684 783 884]
1377,1378,[ 96 183 270 357 444 531 617 703 790 875]
1378,1379,[130 232 343 459 577 697 816 931]
1379,1380,[ 75 133 190 247 304 359 419 477 535 593 651 707 768 806 874 936]
1380,1381,[ 38 118 247 330 456 537 663 744 870]
1381,1382,[107 192 278 366 448 535 617 695 776 857 943]
1382,1383,[ 99 196 291 385 479 569 662 754 860]
1383,1384,[ 52 151 252 352 451 552 653 752 853]
1384,1385,[ 78 177 276 376 478 581 683 786 892]
1385,1386,[104 198 291 382 477 572 671 764 859 949]
1386,1387,[ 78 197 316 434 551 668 779 892]
1387,1388,[ 44 124 205 286 369 453 536 616 698 779 859 938]
1388,1389,[ 44 111 177 244 311 378 444 511 574 643 709 775 840 905]
1389,1390,[ 96 203 311 418 524 632 739 843]
1390,1391,[ 95 169 245 321 397 474 551 628 705 782 858 935]
1391,1392,[ 55 163 194 270 376 454 591 697 807 916]
1392,1393,[ 71 177 282 390 501 614 726 839]
1393,1394,[ 34 104 173 244 314 383 453 522 595 666 736 808 877 949]
1394,1395,[ 38 148 257 358 478 596 711 819 918]
1395,1396,[ 51 138 227 314 399 484 569 654 738 825 912]
1396,1397,[123 220 317 415 511 605 701 797 891]
1397,1398,[ 67 142 217 290 363 435 507 581 654 727 800 874 947]
1398,1399,[ 35 120 205 291 376 461 546 632 717 802 887]
1399,1400,[ 32 103 175 244 316 389 459 529 604 674 741 815 885]
1400,1401,[135 264 390 516 640 765 894]
1401,1402,[ 46 119 193 265 337 407 477 547 617 687 757 826 896]
1402,1403,[ 63 186 305 424 543 659 776 891]
1403,1404,[ 67 130 193 260 355 412 472 547 609 703 761 823 905]
1404,1405,[ 77 156 234 314 390 468 547 626 707 783 852 940]
1405,1406,[ 58 131 203 275 347 420 492 564 635 708 780 851 922]
1406,1407,[ 37 111 187 262 336 410 484 558 630 704 777 848 919]
1407,1408,[ 65 157 245 334 420 506 595 681 767 857 944]
1408,1409,[ 98 192 285 380 477 571 664 761 862]
1409,1410,[ 60 142 237 330 422 509 597 678 759 845 927]
1410,1411,[ 90 200 311 423 534 643 693 855]
1411,1412,[ 75 133 191 249 307 364 422 480 538 596 653 711 768 826 884 941]
1412,1413,[ 47 141 232 282 389 493 588 684 779 874]
1413,1414,[ 97 179 262 344 427 507 586 666 748 831 913]
1414,1415,[ 80 172 262 350 434 523 611 704 789 878]
1415,1416,[ 58 125 186 265 333 401 473 546 620 695 755 852 912]
1416,1417,[ 50 142 231 326 419 512 609 708 804 892]
1417,1418,[ 66 161 262 355 447 546 645 744 837 934]
1418,1419,[105 182 258 335 409 481 554 600 706 806 849]
1419,1420,[ 48 126 204 286 361 435 506 579 655 730 807 883]
1420,1421,[ 63 147 234 324 414 509 596 690 776 869]
1421,1422,[ 73 157 242 328 415 501 586 675 762 846 933]
1422,1423,[101 221 341 459 580 698 817 938]
1423,1424,[116 212 308 405 498 593 689 785 877]
1424,1425,[ 86 192 294 399 507 613 716 824 929]
1425,1426,[ 89 136 235 300 348 448 518 588 635 734 805 880]
1426,1427,[ 74 145 216 286 356 427 498 569 638 708 780 852 923]
1427,1428,[ 87 190 288 386 483 580 677 768 860]
1428,1429,[113 204 293 382 471 561 650 740 830 920]
1429,1430,[101 184 264 353 437 526 609 713 831 917]
1430,1431,[ 63 129 199 262 329 391 460 527 591 655 722 793 860 929]
1431,1432,[ 66 176 290 402 514 625 738 851]
1432,1433,[113 249 384 517 651 778 907]
1433,1434,[ 70 151 236 318 400 486 568 653 735 820 904]
1434,1435,[104 212 321 430 539 648 757 866]
1435,1436,[101 180 259 339 418 498 578 657 734 814 893]
1436,1437,[ 61 151 241 331 419 507 595 683 771 859 947]
1437,1438,[ 32 117 202 285 370 455 538 623 709 794 875]
1438,1439,[ 83 155 231 294 365 429 494 557 619 685 750 810 872]
1439,1440,[ 54 145 235 326 418 511 601 693 785 877]
1440,1441,[110 217 322 425 529 635 739 843 949]
1441,1442,[105 188 270 352 433 516 599 682 765 848 929]
1442,1443,[ 46 102 149 187 227 304 361 400 442 484 528 572 642 709 770 829 872 942]
1443,1444,[ 56 141 222 303 388 472 552 637 725 812 897]
1444,1445,[109 200 289 380 472 567 662 757 850 941]
1445,1446,[ 88 196 301 409 516 622 727 830 931]
1446,1447,[ 95 191 287 366 460 547 634 720 791 862 941]
1447,1448,[104 199 295 391 488 585 682 779 876]
1448,1449,[ 94 194 292 388 488 586 683 781 878]
1449,1450,[ 85 148 211 273 335 397 459 522 585 648 711 773 836 898]
1450,1451,[ 60 132 200 273 345 414 487 558 630 698 765 835 908]
1451,1452,[ 88 155 229 300 372 443 514 584 657 725 800 868 941]
1452,1453,[ 96 217 339 456 573 692 810 925]
1453,1454,[ 70 182 296 410 524 639 750 861]
1454,1455,[ 83 193 303 416 527 639 752 865]
1455,1456,"[ 66 108 140 197 239 278 330 375 416 457 503 549 594 656 699 742 781 821
 880 923]"
1456,1457,[114 203 291 381 471 561 651 741 832 883]
1457,1458,[ 50 134 224 331 411 493 604 704 786 879]
1458,1459,[ 65 133 206 283 357 434 511 591 666 741 817 890]
1459,1460,[ 95 159 223 285 352 415 479 545 610 675 739 802 869 930]
1460,1461,[ 57 139 242 342 442 541 622 726 825 925]
1461,1462,[ 90 202 311 429 557 680 797 907]
1462,1463,[ 71 141 203 247 332 404 475 546 618 688 758 805 891]
1463,1464,[ 60 140 221 301 381 464 542 625 703 784 865 946]
1464,1465,[ 39 109 179 249 319 389 458 528 598 669 740 811 881]
1465,1466,[ 74 132 189 245 299 355 418 472 529 587 642 698 752 807 861 914]
1466,1467,[ 67 145 223 300 378 456 534 612 690 769 846 925]
1467,1468,[ 39 118 193 271 350 429 505 583 665 745 823 900]
1468,1469,[ 55 141 230 315 403 491 575 664 752 836 921]
1469,1470,[ 38 114 185 255 323 392 464 544 625 704 786 868]
1470,1471,[ 60 128 194 260 320 383 446 508 571 633 696 758 836 897]
1471,1472,[ 92 188 284 382 482 529 663 757 852 943]
1472,1473,[ 49 112 173 236 298 359 421 483 551 606 668 730 792 854 916]
1473,1474,[ 46 119 191 267 340 411 483 555 629 706 779 851 931]
1474,1475,[ 94 197 290 391 499 594 694 794 886]
1475,1476,[ 52 119 186 252 318 385 452 521 588 655 722 789 856 923]
1476,1477,[ 48 136 224 312 399 486 573 660 748 834 921]
1477,1478,[ 95 186 279 373 466 558 649 738 827 918]
1478,1479,[105 200 298 394 494 591 684 777 874]
1479,1480,[ 60 144 226 307 389 472 554 634 714 796 878]
1480,1481,[ 74 153 229 307 387 464 545 622 698 774 856 937]
1481,1482,[ 45 120 195 271 347 422 496 572 647 722 797 871 944]
1482,1483,[ 47 202 259 403 523 641 727 879 936]
1483,1484,[ 97 187 329 461 568 672 786 887]
1484,1485,[ 83 170 252 317 430 512 593 677 763 848 931]
1485,1486,[108 160 243 290 373 443 490 545 622 670 726 785 843 913]
1486,1487,[ 56 139 225 315 405 495 583 663 744 829 922]
1487,1488,[ 38 134 233 334 434 534 633 729 825 925]
1488,1489,[ 47 123 204 289 372 454 536 617 697 776 853 930]
1489,1490,[ 76 138 199 259 321 383 445 507 568 617 690 752 815 877 938]
1490,1491,[ 35 120 203 287 372 458 543 626 712 798 884]
1491,1492,[ 45 137 230 323 408 507 599 693 785 880]
1492,1493,[ 78 157 231 307 378 449 520 592 667 739 808 876]
1493,1494,[150 271 391 504 619 732 844]
1494,1495,[ 71 142 210 282 349 419 492 562 631 701 770 837 905]
1495,1496,[ 84 163 243 324 399 479 557 633 712 792 870 947]
1496,1497,[ 60 132 210 283 363 435 512 584 665 743 818 890]
1497,1498,[ 58 160 264 367 467 567 663 758 853]
1498,1499,[ 99 178 261 338 417 495 575 657 736 812 889]
1499,1500,[ 92 131 214 259 315 396 448 505 562 635 745 814 864]
1500,1501,[ 69 152 235 317 399 480 565 651 741 834 924]
1501,1502,[108 174 262 343 410 475 547 614 695 773 862]
1502,1503,[ 54 127 198 265 329 394 461 534 606 668 734 799 874 948]
1503,1504,[102 201 301 400 497 595 688 785 882]
1504,1505,[ 60 171 285 400 514 626 740 853]
1505,1506,[ 89 187 283 382 485 588 691 791 889]
1506,1507,[ 89 194 301 408 511 614 724 835 941]
1507,1508,[ 62  98 142 209 252 312 362 413 463 499 561 613 659 715 765 816 866 903]
1508,1509,[ 94 174 252 336 415 499 580 661 739 822 901]
1509,1510,[ 54 122 190 259 328 395 465 534 603 671 739 804 866 926]
1510,1511,[ 78 185 289 396 510 620 732 845]
1511,1512,[ 99 197 294 389 484 578 664 749 841]
1512,1513,[ 75 146 218 290 362 433 509 580 650 718 790 860 931]
1513,1514,[ 53 139 229 317 402 491 573 661 746 832 925]
1514,1515,[ 60 122 184 246 307 369 431 493 555 617 679 740 802 864 926]
1515,1516,[ 87 148 207 266 325 384 442 502 564 626 688 750 811 872 930]
1516,1517,[ 97 225 348 480 601 741 892]
1517,1518,[ 93 186 282 376 471 565 662 754 851 945]
1518,1519,[ 62 133 204 275 346 418 490 561 632 704 777 849 920]
1519,1520,[ 50 106 162 218 274 330 387 443 500 556 612 668 724 781 837 893 949]
1520,1521,[ 84 156 231 304 376 451 528 602 677 750 825 901]
1521,1522,[ 95 209 321 434 544 656 766 875]
1522,1523,[ 94 226 372 506 643 776 911]
1523,1524,[ 82 147 206 292 348 419 501 571 632 721 780 845 915]
1524,1525,[ 32 110 188 267 345 423 502 580 657 734 812 883]
1525,1526,[115 216 314 414 513 612 713 808 904]
1526,1527,[ 98 187 291 390 491 587 678 768 859]
1527,1528,[ 46 101 157 212 267 322 377 432 488 543 598 654 709 764 819 875 930]
1528,1529,[ 98 181 266 351 436 520 607 696 783 871]
1529,1530,[ 83 168 252 336 422 507 592 676 760 844 928]
1530,1531,[ 98 180 260 341 423 504 586 666 714 747 790 829 910]
1531,1532,[100 209 317 424 532 641 750 856]
1532,1533,[ 84 157 228 302 377 450 522 597 671 744 815 888]
1533,1534,[ 64 155 241 324 412 502 591 674 761 847 931]
1534,1535,[106 191 277 364 446 526 606 690 770 853 935]
1535,1536,[ 73 157 236 311 383 457 531 609 687 766 842 915]
1536,1537,[ 62 167 284 388 502 575 660 769 893]
1537,1538,[102 201 304 405 504 608 710 812 912]
1538,1539,[ 55 155 256 356 454 552 650 745 841 938]
1539,1540,[152 273 401 526 646 773 900]
1540,1541,[ 92 165 238 310 382 455 529 602 675 749 823 898]
1541,1542,[ 96 218 340 461 581 704 823 940]
1542,1543,[ 63 173 299 441 565 686 800 918]
1543,1544,[ 81 153 226 296 370 443 512 587 659 728 801 877 949]
1544,1545,[ 39 125 211 296 381 467 551 636 721 806 890]
1545,1546,[ 87 153 221 287 353 419 485 551 617 681 749 816 883 949]
1546,1547,[ 78 174 269 365 459 554 647 725 801 879]
1547,1548,[ 52 127 202 276 351 426 501 576 651 726 801 876]
1548,1549,[ 49 130 209 290 371 454 535 616 697 777 859 939]
1549,1550,[ 50 126 201 277 352 427 502 577 652 727 802 876]
1550,1551,[ 35  88 141 195 248 301 354 407 461 514 568 621 674 727 780 833 887 940]
1551,1552,[111 173 261 317 412 460 567 638 710 783 855 928]
1552,1553,[ 58 136 214 292 368 451 528 610 686 768 848 926]
1553,1554,[ 42 108 175 242 308 374 441 507 574 641 708 775 842 909]
1554,1555,[ 93 197 315 433 546 652 759 868]
1555,1556,"[ 51 101 150 199 248 298 347 396 445 494 543 592 642 691 740 789 839 888
 937]"
1556,1557,[ 44 100 156 210 268 324 381 438 495 553 610 668 725 782 838 894 949]
1557,1558,[ 77 172 261 346 436 527 616 706 801 888]
1558,1559,[ 54 120 188 257 328 399 468 537 603 672 740 809 876 943]
1559,1560,[ 99 206 310 415 506 595 704 813 917]
1560,1561,[ 78 166 255 347 437 533 625 720 812 903]
1561,1562,[ 39 157 275 393 511 630 747 864]
1562,1563,[105 182 259 335 412 487 565 642 719 797 875]
1563,1564,[115 230 316 451 578 696 805 918]
1564,1565,[105 178 250 322 396 468 547 619 694 769 841 915]
1565,1566,[ 64 134 202 272 342 411 480 550 621 692 762 831 902]
1566,1567,[116 237 357 466 585 702 807 924]
1567,1568,[121 217 312 412 509 603 700 795 894]
1568,1569,[ 53 120 185 249 315 381 446 513 578 644 711 775 841 907]
1569,1570,[ 84 161 239 315 392 470 548 625 701 779 858 936]
1570,1571,[ 40 122 206 289 373 457 541 626 709 791 880]
1571,1572,[ 58 142 224 308 391 474 556 637 718 799 881]
1572,1573,[ 64 145 234 317 398 482 564 645 731 816 897]
1573,1574,[ 34 105 177 247 317 389 461 531 602 673 744 813 883]
1574,1575,[ 91 155 219 283 348 387 476 541 605 669 733 796 860 923]
1575,1576,[ 83 157 234 308 383 459 534 608 685 760 834 911]
1576,1577,[ 53 119 186 253 320 387 454 521 588 655 722 789 856 923]
1577,1578,[123 236 344 457 573 689 802 919]
1578,1579,[ 93 173 255 336 419 497 579 659 744 823 906]
1579,1580,[ 75 155 235 314 392 469 546 624 702 780 858 933]
1580,1581,[ 36 158 276 394 518 636 755 876]
1581,1582,[ 31 102 177 252 327 400 474 544 616 690 766 842 917]
1582,1583,[131 247 365 481 594 701 806 914]
1583,1584,[ 53 147 236 324 412 500 591 682 770 857 946]
1584,1585,[ 71 139 208 278 348 418 487 554 623 695 765 833 901]
1585,1586,[ 77 153 290 367 452 532 603 682 790 883]
1586,1587,[ 93 185 277 369 460 551 645 741 837 930]
1587,1588,[ 61 129 197 264 332 400 467 535 603 671 739 808 877 946]
1588,1589,[104 198 293 392 491 588 686 785 883]
1589,1590,[105 217 324 437 552 663 751 864]
1590,1591,[ 55 139 223 307 390 473 556 638 720 803 886]
1591,1592,[ 57 147 237 327 416 506 596 686 775 864]
1592,1593,[108 195 285 377 461 548 636 723 810 894]
1593,1594,[121 211 301 393 485 577 669 762 854 945]
1594,1595,[ 32 108 187 261 338 414 491 566 644 720 795 872]
1595,1596,[ 67 205 379 530 661 776 894]
1596,1597,[ 38 111 186 261 336 413 490 568 646 726 805 886]
1597,1598,[ 79 179 280 378 474 572 672 771 868]
1598,1599,[120 225 335 433 539 643 743 847]
1599,1600,[ 54 119 186 253 318 384 449 515 580 645 712 778 841 907]
1600,1601,[ 54 138 223 308 396 485 569 650 736 824 910]
1601,1602,[ 37 125 214 303 391 477 563 649 737 824 913]
1602,1603,[ 53 138 225 314 401 485 569 653 741 828 913]
1603,1604,[ 87 172 256 339 423 504 586 670 755 844 931]
1604,1605,[101 184 273 347 420 494 562 642 744 832 918]
1605,1606,[ 32 120 207 293 379 465 553 643 734 826 916]
1606,1607,[109 200 280 362 443 525 610 697 781 868]
1607,1608,[ 78 145 212 277 347 412 480 548 616 687 753 824 892]
1608,1609,[ 79 152 224 299 374 449 524 599 675 752 828 904]
1609,1610,[ 80 153 227 298 370 442 512 585 658 729 804 877]
1610,1611,"[ 53 100 150 199 247 296 345 393 440 490 537 587 636 684 733 780 830 877
 927]"
1611,1612,[ 52 146 239 335 428 519 605 683 758 835 916]
1612,1613,[ 45 141 232 318 411 503 599 692 783 871]
1613,1614,[ 41 147 252 365 474 582 694 805 912]
1614,1615,[117 211 305 396 486 578 672 765 858 949]
1615,1616,[ 80 154 230 305 379 454 529 605 679 755 833 910]
1616,1617,[ 52 145 237 333 432 532 632 735 836 935]
1617,1618,[ 55 132 218 298 376 451 530 610 693 778 857 933]
1618,1619,[ 83 166 252 339 427 513 601 691 783 874]
1619,1620,[ 64 140 217 292 362 441 516 592 663 741 816 891]
1620,1621,[ 75 153 231 307 386 463 542 623 698 774 853 927]
1621,1622,[ 43 160 278 402 527 649 765 872]
1622,1623,[102 200 297 393 489 583 674 761 852 941]
1623,1624,[ 35 152 205 295 370 448 529 633 682 776 828 878]
1624,1625,[ 76 141 207 241 274 340 412 472 538 611 677 737 804 870 936]
1625,1626,[ 69 158 242 324 408 490 573 653 734 817 907]
1626,1627,[ 51 162 263 347 435 514 600 673 781 863 929]
1627,1628,[ 87 147 205 266 322 378 434 491 550 609 667 724 779 834 890 946]
1628,1629,[ 80 162 249 339 427 517 611 702 795 879]
1629,1630,[ 69 143 218 295 375 457 537 614 693 774 857 938]
1630,1631,[ 75 167 265 363 458 554 650 742 833 929]
1631,1632,[116 209 308 408 503 603 703 803 899]
1632,1633,[ 62 128 177 252 314 376 438 499 562 624 686 748 810 873 935]
1633,1634,[ 46 140 240 333 423 514 606 699 794 888]
1634,1635,[ 36  94 152 210 268 325 380 437 496 555 615 673 729 787 846 906 942]
1635,1636,[ 97 179 261 344 425 507 591 671 754 837 919]
1636,1637,[ 73 156 239 321 403 485 566 647 728 809 890]
1637,1638,[103 180 262 337 407 472 540 614 690 775 862 943]
1638,1639,[ 81 202 320 436 546 651 753 874]
1639,1640,[120 216 318 366 426 530 634 746 854]
1640,1641,[106 192 277 363 449 535 620 706 792 878]
1641,1642,[ 39 113 187 262 340 418 496 573 649 726 802 878]
1642,1643,[ 51 149 242 335 425 516 602 690 768 847 943]
1643,1644,[ 92 172 251 332 410 491 570 649 731 810 892]
1644,1645,[ 31 140 249 361 473 586 699 811 922]
1645,1646,[ 32  96 178 244 302 366 446 508 572 622 681 755 828 893]
1646,1647,[ 74 150 210 269 328 387 446 503 563 623 685 742 801 862 920]
1647,1648,[ 38 116 196 275 352 431 508 586 664 741 820 898]
1648,1649,[115 214 312 409 505 602 698 792 888]
1649,1650,[ 46 119 193 268 341 416 489 561 633 706 778 852 926]
1650,1651,[ 66 139 224 308 392 476 557 639 719 802 885]
1651,1652,[129 235 344 454 561 664 768 873]
1652,1653,[ 77 161 246 334 423 511 598 683 767 852 937]
1653,1654,[101 210 324 440 555 670 782 892]
1654,1655,[ 69 159 249 342 437 531 624 718 811 903]
1655,1656,[ 66 137 209 282 355 429 500 570 642 716 791 865 937]
1656,1657,[ 46 114 182 250 319 387 454 520 586 653 721 787 853 919]
1657,1658,[116 244 364 490 622 744 864]
1658,1659,[ 32 107 143 255 364 475 586 696 811 924]
1659,1660,[ 90 180 272 363 455 547 638 727 823 916]
1660,1661,[ 82 142 202 263 322 381 439 497 559 623 689 756 820 883]
1661,1662,[ 52 121 205 312 409 498 592 683 772 863]
1662,1663,[ 63 154 240 323 409 498 588 672 755 841 931]
1663,1664,[ 85 177 272 367 462 557 656 756 856]
1664,1665,[ 53 131 210 289 366 446 523 599 676 753 835 913]
1665,1666,[ 87 184 279 367 455 546 637 729 821 917]
1666,1667,[ 38 130 219 311 405 498 588 679 774 869]
1667,1668,[ 84 163 241 317 394 475 558 639 716 799 880]
1668,1669,[111 193 272 347 421 503 570 652 740 828 916]
1669,1670,[ 53  95 152 201 250 285 352 392 451 500 547 586 654 695 728 808 851 908]
1670,1671,[ 64 127 189 251 314 376 437 503 568 630 694 761 825 887]
1671,1672,[ 40 106 176 248 318 385 455 526 596 662 730 805 911]
1672,1673,[ 75 146 217 287 358 427 497 568 639 711 783 853 922]
1673,1674,[ 94 179 264 349 435 520 605 690 777 861 946]
1674,1675,[ 88 176 269 356 445 533 624 714 803 893]
1675,1676,[ 51 142 231 320 411 501 589 680 770 860 948]
1676,1677,[ 97 209 322 433 546 658 770 880]
1677,1678,[ 37 146 259 368 479 593 703 808 913]
1678,1679,[ 96 180 266 350 435 519 603 686 771 855 941]
1679,1680,[ 57 126 195 265 335 404 473 543 612 681 750 820 890]
1680,1681,[ 39 112 185 258 332 405 479 545 623 698 772 847 921]
1681,1682,[ 81 183 282 385 483 578 683 778 880]
1682,1683,[ 64 169 276 380 487 594 699 803 906]
1683,1684,[ 74 160 211 333 386 505 591 676 760 845 931]
1684,1685,[ 61 138 214 288 364 439 512 588 663 738 811 887]
1685,1686,[ 83 173 264 352 438 529 618 707 797 886]
1686,1687,[ 62 127 192 257 323 387 452 517 581 645 710 774 838 902]
1687,1688,[101 196 282 358 459 554 638 730 832 909]
1688,1689,[ 73 131 189 247 305 363 422 480 538 596 655 714 772 831 890 949]
1689,1690,[ 95 213 323 429 541 654 768 884]
1690,1691,[ 64 160 255 346 439 533 601 720 814 908]
1691,1692,[104 200 296 392 486 579 674 769 865]
1692,1693,[ 70 154 238 322 406 489 573 657 741 824 908]
1693,1694,[ 36  95 152 210 269 331 411 481 543 612 673 737 795 854 915]
1694,1695,[ 47 137 222 311 401 486 574 657 735 814 893]
1695,1696,[ 37 103 169 235 305 371 439 506 572 638 705 772 835 906]
1696,1697,[ 91 178 264 351 436 522 609 693 780 867]
1697,1698,[ 78 166 253 341 429 517 601 691 778 862]
1698,1699,[108 197 283 370 458 543 628 718 807 898]
1699,1700,[ 92 193 293 392 493 596 699 804 908]
1700,1701,[ 56 134 209 283 356 429 505 582 656 732 810 892]
1701,1702,[ 89 205 318 421 529 636 737 842 947]
1702,1703,[ 93 165 236 305 376 446 516 586 657 730 803 875 948]
1703,1704,[ 32  90 151 211 270 328 391 451 512 572 634 691 751 814 873 930]
1704,1705,[ 80 170 263 360 459 549 636 720 801 884]
1705,1706,[ 79 158 237 317 396 473 551 632 714 796 880]
1706,1707,[ 53 151 243 339 435 532 627 722 814 910]
1707,1708,[ 93 177 263 345 428 508 587 670 749 826 907]
1708,1709,[ 75 175 277 379 477 578 678 775 869]
1709,1710,[ 89 176 264 352 440 529 618 718 807 886]
1710,1711,[ 75 178 306 431 534 645 742 843 948]
1711,1712,[ 56 126 195 265 336 408 481 555 631 706 782 857 930]
1712,1713,[ 36 120 198 277 359 436 514 593 672 751 834 913]
1713,1714,[ 53 125 195 265 336 409 481 552 623 696 769 841 910]
1714,1715,[ 31 101 172 243 315 386 459 531 603 676 748 821 893]
1715,1716,[ 45 114 183 250 319 387 455 523 592 662 731 800 869 941]
1716,1717,[110 218 322 472 611 728 834 939]
1717,1718,[ 93 190 289 386 480 577 673 768 864]
1718,1719,[ 75 137 202 268 331 398 464 530 594 656 724 788 852 918]
1719,1720,[ 70 174 278 380 486 592 696 801 908]
1720,1721,[ 78 140 205 266 331 392 454 515 577 640 703 766 831 893]
1721,1722,[ 96 221 329 436 547 758 864]
1722,1723,[ 70 148 227 303 383 461 535 610 682 758 833 908]
1723,1724,[ 88 167 249 332 413 491 574 655 734 812 892]
1724,1725,[ 87 148 208 252 320 391 454 516 577 638 698 759 801 866 935]
1725,1726,[ 47 147 240 330 424 514 605 688 770 855 946]
1726,1727,[ 36 105 173 243 310 378 447 519 591 662 736 811 882]
1727,1728,[110 215 321 432 542 659 767 871]
1728,1729,[ 83 144 204 261 316 371 427 485 544 603 664 729 794 857 918]
1729,1730,[101 189 276 364 450 535 620 705 789 874]
1730,1731,[ 68 131 190 256 314 375 436 497 559 620 686 745 808 871 935]
1731,1732,[112 198 283 365 449 533 618 702 785 870]
1732,1733,[ 97 163 229 295 363 430 504 568 636 703 776 838 904]
1733,1734,[ 38 132 246 357 469 578 686 794 902]
1734,1735,[ 57 153 251 318 455 553 642 732 820 910]
1735,1736,[ 57 163 230 347 452 518 639 746 812 934]
1736,1737,[ 51 143 232 325 414 504 600 690 778 868]
1737,1738,[ 70 128 186 245 303 361 419 479 537 596 655 715 774 833 892]
1738,1739,[ 50 157 268 375 475 578 685 790 892]
1739,1740,[ 41 129 223 314 394 484 573 655 735 822 912]
1740,1741,[112 197 285 377 471 558 645 734 825 913]
1741,1742,[ 44 146 247 347 447 548 646 745 848]
1742,1743,[ 86 164 244 331 425 523 614 698 783 874]
1743,1744,[ 67 141 214 287 359 430 503 579 656 733 812 894]
1744,1745,[ 31 129 227 319 404 494 589 688 785 872]
1745,1746,[ 55 159 260 351 446 550 694 816 939]
1746,1747,[102 173 259 329 418 490 577 648 737 807 893]
1747,1748,[ 98 173 249 319 388 451 521 596 672 742 812 907]
1748,1749,[ 79 171 263 354 444 536 627 717 810 901]
1749,1750,[ 46 139 231 321 415 505 596 688 778 869]
1750,1751,[ 56 136 218 302 387 471 553 635 722 809 894]
1751,1752,[ 33 140 250 362 472 580 696 814 925]
1752,1753,[133 241 350 458 566 671 777 882]
1753,1754,[ 58 129 198 266 335 406 479 554 626 697 767 836 904]
1754,1755,[ 72 130 182 240 306 356 412 470 513 569 625 690 731 769 816 864 925]
1755,1756,[ 74 140 187 272 319 404 451 536 603 669 736 803 870 916]
1756,1757,[ 81 177 272 368 467 563 659 755 856]
1757,1758,[ 84 157 230 304 377 447 518 591 664 735 807 880]
1758,1759,[ 36 147 266 387 500 618 738 852]
1759,1760,[ 38 114 189 263 340 415 489 559 630 698 770 838 909]
1760,1761,[ 82 140 199 255 313 370 429 485 544 601 657 715 773 831 889 948]
1761,1762,[ 76 182 288 388 492 600 703 810 919]
1762,1763,"[ 72 113 148 183 219 260 320 358 422 485 540 584 648 704 755 787 821 861
 920]"
1763,1764,[ 53 107 162 217 269 323 379 434 488 541 594 648 700 755 810 865 920]
1764,1765,[ 69 164 254 349 442 537 629 726 822 917]
1765,1766,[ 60 147 234 319 405 492 576 662 747 833 918]
1766,1767,[ 40 113 189 263 340 415 488 562 637 710 782 857 933]
1767,1768,[ 31 115 202 289 375 462 553 642 731 820 911]
1768,1769,[ 92 171 249 328 409 488 566 645 723 800 878]
1769,1770,[125 227 329 428 526 625 727 829 931]
1770,1771,[ 62 140 217 289 362 438 515 593 672 750 831 911]
1771,1772,[124 221 315 411 509 601 695 793 886]
1772,1773,[ 75 161 252 335 472 623 719 802]
1773,1774,[ 46 126 207 288 368 448 529 611 694 776 860 946]
1774,1775,[ 58 143 230 315 402 488 574 660 745 829 916]
1775,1776,[ 67 200 338 465 584 700 805 904]
1776,1777,[ 91 190 275 359 425 518 580 679 765 851 935]
1777,1778,[109 195 288 382 479 574 665 760 853 946]
1778,1779,[ 67 164 263 357 450 541 635 730 826 920]
1779,1780,[ 97 195 296 398 500 598 697 795 895]
1780,1781,[ 59 134 209 281 357 428 498 571 645 717 787 857 928]
1781,1782,[ 90 168 242 320 405 489 565 642 718 791 867]
1782,1783,[ 34 126 220 315 413 510 607 702 798 893]
1783,1784,[ 71 145 215 291 367 437 487 557 659 732 798 866 933]
1784,1785,[ 63 127 191 254 318 381 444 508 570 634 697 759 822 885 947]
1785,1786,[103 179 256 334 410 487 563 640 717 796 872 948]
1786,1787,[ 77 155 243 321 399 483 562 636 709 748 850 917]
1787,1788,[ 53 119 187 252 319 380 438 501 560 618 672 728 783 840 892]
1788,1789,[ 61 153 246 338 427 520 613 704 795 882]
1789,1790,[ 78 152 225 297 369 441 513 586 659 731 804 876 948]
1790,1791,[126 232 338 445 552 662 769 873]
1791,1792,[ 32 106 179 250 323 395 468 544 614 687 761 835 905]
1792,1793,[ 73 157 242 327 409 491 573 657 741 822 903]
1793,1794,[ 50 142 234 327 421 515 609 692 788 892]
1794,1795,[123 226 329 430 531 635 736 841]
1795,1796,[ 54 147 244 340 434 527 619 714 808 901]
1796,1797,[ 93 188 283 378 472 565 658 751 844 938]
1797,1798,[ 74 122 180 255 325 376 455 540 588 643 694 748 823 879]
1798,1799,[135 268 395 518 643 767 853 947]
1799,1800,[ 42 149 257 363 471 580 688 796 900]
1800,1801,[ 68 162 243 320 407 473 553 643 742 818 898]
1801,1802,[104 203 302 400 499 595 687 782 878]
1802,1803,[ 85 159 233 309 384 459 535 610 685 759 834 908]
1803,1804,[ 31 123 211 301 394 486 573 661 751 836 925]
1804,1805,[ 58 162 259 367 463 562 670 769 869]
1805,1806,[ 48 106 161 210 280 335 395 453 508 565 624 672 738 795 852 912]
1806,1807,[ 44 117 191 268 343 416 491 566 643 719 795 872]
1807,1808,[ 36 133 217 298 391 486 572 660 749 837 913]
1808,1809,[ 31 116 164 203 287 328 373 460 509 542 627 659 719 799 885]
1809,1810,[157 292 412 539 666 792 924]
1810,1811,[ 88 160 236 310 387 464 543 622 698 775 854 932]
1811,1812,[115 211 308 404 499 595 690 785 880]
1812,1813,[ 62 119 178 236 295 358 425 485 545 603 659 715 775 837 895]
1813,1814,[ 38 139 235 331 429 526 622 721 820 920]
1814,1815,"[ 39  78 121 183 224 261 294 346 390 439 475 517 567 614 657 697 740 780
 824 870 907 945]"
1815,1816,[ 84 170 256 345 431 516 602 691 782 873]
1816,1817,[ 50 125 194 265 345 421 489 545 600 651 715 784 846 914]
1817,1818,[ 78 148 219 290 360 430 500 570 642 714 785 856 926]
1818,1819,[ 75 125 175 223 276 326 375 427 478 528 578 629 677 730 780 831 879 932]
1819,1820,[ 68 124 176 223 278 330 377 432 479 530 581 633 689 740 787 839 895 942]
1820,1821,[ 37 122 208 293 376 457 539 624 714 801 886]
1821,1822,[ 71 137 202 268 334 399 464 529 597 665 734 807 878]
1822,1823,[ 78 133 193 252 311 370 430 491 550 605 661 722 782 841 901]
1823,1824,[122 234 342 452 563 670 770 875]
1824,1825,[ 87 180 271 364 457 549 640 735 830 923]
1825,1826,[ 74 155 236 318 399 479 560 643 726 812 897]
1826,1827,[ 32  99 166 232 300 367 434 501 567 634 701 769 838 906]
1827,1828,[ 61 139 217 271 371 451 530 608 687 765 842 919]
1828,1829,[ 89 163 241 318 395 475 552 630 711 790 867 944]
1829,1830,[ 61 152 244 332 421 510 602 689 774 860 949]
1830,1831,[114 198 277 358 443 526 580 670 755 838 919]
1831,1832,[ 89 178 266 356 444 533 620 707 795 883]
1832,1833,[ 99 180 262 344 425 506 590 673 758 840 921]
1833,1834,[103 188 285 390 488 580 669 756 845 932]
1834,1835,[ 40 139 229 323 424 524 617 709 809 903]
1835,1836,[103 191 279 363 452 546 649 746 844 940]
1836,1837,[ 88 170 248 331 406 490 559 644 715 798 867]
1837,1838,[ 92 217 339 456 577 700 819 938]
1838,1839,[ 89 156 223 289 354 419 484 550 615 680 743 807 872 937]
1839,1840,[ 45 114 174 247 324 401 472 544 616 694 777 855 932]
1840,1841,[ 99 214 332 446 559 670 789 896]
1841,1842,[ 33 119 205 290 373 456 537 622 703 784 863 942]
1842,1843,[182 342 434 512 587 663 740 816 894]
1843,1844,[106 203 297 394 490 589 682 781 874]
1844,1845,[ 46 119 192 266 339 412 485 557 631 704 778 852 926]
1845,1846,[ 36 133 230 325 420 515 610 706 804 898]
1846,1847,[ 78 130 182 235 287 339 391 442 494 546 599 651 704 756 808 860 912]
1847,1848,[ 77 198 315 431 550 666 781 901]
1848,1849,[ 88 151 213 275 338 400 463 525 588 651 713 775 837 898]
1849,1850,[ 89 152 216 279 341 404 467 530 593 656 719 782 846 912]
1850,1851,[ 86 155 224 292 359 427 494 560 625 690 757 822 887]
1851,1852,[ 85 149 218 284 347 413 480 543 608 673 738 804 869 935]
1852,1853,[ 36 121 204 289 378 468 553 640 721 803 882]
1853,1854,[ 93 188 281 370 463 557 650 741 834 928]
1854,1855,[ 96 172 246 320 392 465 538 612 686 759 808 897]
1855,1856,[ 89 163 236 306 378 451 528 603 680 757 838 917]
1856,1857,[ 67 166 261 353 449 546 644 740 832 922]
1857,1858,"[ 43  76 110 145 176 209 241 274 306 341 379 413 447 487 521 552 585 638
 671 709 752 794 831 871 904 942]"
1858,1859,[ 62 128 193 258 326 390 455 520 585 652 717 785 853 920]
1859,1860,[ 39 116 197 277 356 442 524 604 688 774 868]
1860,1861,[ 50 125 198 272 344 418 491 564 637 709 782 855 928]
1861,1862,[111 208 303 399 492 587 677 770 860]
1862,1863,[ 37  97 158 229 296 368 405 497 569 641 713 780 845 899]
1863,1864,[ 62 119 199 259 334 402 471 540 609 663 714 813 882 939]
1864,1865,[ 84 152 222 296 371 445 518 590 664 738 810 882 949]
1865,1866,[ 55 176 295 416 537 657 780 900]
1866,1867,[ 62 177 289 396 505 617 730 844]
1867,1868,[ 47 157 270 379 486 597 707 811 921]
1868,1869,[ 60 161 258 359 459 557 661 763 861]
1869,1870,[ 61 139 217 297 376 457 539 621 705 788 869]
1870,1871,[ 50 135 220 301 381 460 541 623 703 783 863 939]
1871,1872,[ 91 165 240 315 391 467 542 617 693 769 846 922]
1872,1873,[ 80 151 227 297 371 445 520 598 676 752 827 905]
1873,1874,[ 96 187 281 375 466 559 652 745 836 929]
1874,1875,[ 58 161 264 364 466 570 672 773 877]
1875,1876,[ 79 137 194 252 312 370 428 486 544 601 659 717 777 835 892]
1876,1877,[ 64 131 194 256 314 373 433 491 537 601 661 724 777 841 893]
1877,1878,[ 48 112 179 244 311 377 439 507 574 641 707 770 834 895]
1878,1879,[ 97 181 264 347 431 516 600 685 768 853 936]
1879,1880,[107 206 303 401 498 599 701 802 903]
1880,1881,[100 181 261 342 422 502 584 665 745 826 907]
1881,1882,[ 39 138 233 322 414 505 595 684 768 854 943]
1882,1883,[ 38 108 179 248 319 388 458 527 598 668 739 811 881]
1883,1884,[112 233 357 478 597 717 838]
1884,1885,[ 38 121 200 281 378 469 552 637 725 809 902]
1885,1886,[ 92 168 248 322 401 477 552 631 705 782 861 937]
1886,1887,[ 41 120 198 279 359 440 521 600 676 754 828 904]
1887,1888,[ 76 180 289 394 494 588 683 783 886]
1888,1889,[ 76 158 216 276 350 419 488 551 621 690 745 809 882]
1889,1890,[128 268 407 549 694 836]
1890,1891,[ 45 144 242 336 428 524 619 716 816 923]
1891,1892,[ 89 153 215 278 340 402 463 523 585 648 711 770 830 891]
1892,1893,[ 78 199 315 424 541 656 758 861]
1893,1894,[ 72 123 173 224 274 325 375 426 476 527 577 627 678 728 779 830 880 931]
1894,1895,[ 66 169 271 371 474 574 675 778 880]
1895,1896,[ 63 147 244 340 437 535 629 721 812 907]
1896,1897,[ 79 177 275 375 474 572 670 769 867]
1897,1898,[ 93 184 270 353 429 510 608 704 794 880]
1898,1899,[ 81 168 256 341 427 518 616 715 812 906]
1899,1900,[ 87 182 274 371 475 572 667 764 866]
1900,1901,[118 214 314 410 502 586 674 758 853]
1901,1902,[ 72 131 187 246 304 363 421 480 539 600 658 716 775 836 894]
1902,1903,[ 78 146 214 282 349 415 480 545 611 676 745 813 880 947]
1903,1904,[ 80 165 249 333 416 499 582 666 750 834 917]
1904,1905,[ 50 110 170 229 289 349 409 469 529 589 650 710 769 829 888 948]
1905,1906,[ 68 129 194 263 333 401 466 528 587 647 705 765 827 890]
1906,1907,[ 66 136 219 288 370 438 518 647 713 754 788 850 915]
1907,1908,[121 214 306 384 434 527 613 688 742 835 928]
1908,1909,[ 62 141 224 304 385 469 553 637 719 796 875]
1909,1910,[102 231 359 490 621 752 883]
1910,1911,[ 72 132 191 251 310 370 430 489 548 608 667 726 784 842 901]
1911,1912,[ 98 182 267 351 434 518 601 685 766 846 925]
1912,1913,[ 96 184 274 364 453 540 631 723 816 906]
1913,1914,[ 65 136 195 259 323 383 446 500 569 655 710 771 840 895]
1914,1915,[ 70 143 225 303 387 467 551 633 711 792 867 945]
1915,1916,[ 79 155 234 311 388 465 543 621 697 775 854 933]
1916,1917,[ 77 169 272 377 477 573 683 786 879]
1917,1918,[ 96 174 251 325 408 487 542 648 725 802 855]
1918,1919,"[ 43  79 114 149 184 219 255 290 325 360 395 430 465 500 535 571 605 640
 675 710 744 779 814 849 883 918]"
1919,1920,[ 67 135 204 273 343 414 484 556 627 698 769 840 911]
1920,1921,[ 61 124 188 250 313 375 437 499 560 622 683 745 806 867 928]
1921,1922,[ 46 129 212 303 392 478 566 654 737 823 909]
1922,1923,[ 68 159 256 353 451 543 633 729 828 927]
1923,1924,[134 241 348 455 562 670 777 885]
1924,1925,[ 79 152 224 296 368 441 517 563 665 737 806 875 944]
1925,1926,[ 43 111 179 248 317 387 456 525 594 663 732 801 870 937]
1926,1927,[ 78 139 201 263 325 387 449 511 573 635 697 759 822 883 945]
1927,1928,[111 200 289 376 462 547 635 722 806 891]
1928,1929,[112 202 294 382 470 559 650 741 830 919]
1929,1930,"[ 66 114 162 210 258 306 351 401 449 496 544 591 639 684 734 781 828 876
 921]"
1930,1931,[ 58 140 218 299 399 499 586 664 745 830 916]
1931,1932,[ 79 167 258 342 430 521 613 700 789 884]
1932,1933,[ 31  98 166 235 303 369 435 502 571 638 703 768 832 897]
1933,1934,[104 205 304 398 495 591 684 784 873]
1934,1935,[ 79 159 239 317 397 479 559 639 717 798 878]
1935,1936,[ 96 183 268 358 446 529 618 706 793 880]
1936,1937,[ 66 142 218 294 369 437 521 596 671 746 821 896]
1937,1938,[ 76 145 218 286 358 433 511 584 655 730 806 883]
1938,1939,[ 43 150 253 363 471 581 685 789 899]
1939,1940,[ 44 146 247 345 444 542 638 739 835 933]
1940,1941,[ 59 124 166 211 271 321 369 416 471 516 563 612 654 700 758 799 868 923]
1941,1942,[107 207 263 319 374 462 549 628 685 772 858 941]
1942,1943,[ 87 168 247 326 407 489 571 655 734 812 891]
1943,1944,[ 81 142 203 264 325 386 445 506 567 629 690 751 812 873 934]
1944,1945,[ 72 169 270 370 468 568 668 766 864]
1945,1946,[ 65 152 235 318 405 500 594 685 771 860 945]
1946,1947,[101 185 268 351 435 518 602 686 771 855 939]
1947,1948,[ 93 245 371 469 620 749 846 948]
1948,1949,[ 39 109 180 250 320 390 461 531 603 674 746 819 891 941]
1949,1950,[ 80 147 217 287 358 430 501 571 640 709 778 848 919]
1950,1951,[ 35  86 137 188 239 286 342 393 444 495 546 587 647 699 750 801 852 903]
1951,1952,[ 39 142 241 345 449 552 653 757 861]
1952,1953,[ 92 189 292 395 499 607 717 824 930]
1953,1954,[ 35 119 204 286 372 463 550 636 721 805 891]
1954,1955,[ 33 108 177 238 305 372 438 504 577 643 709 770 836 902]
1955,1956,[ 70 170 269 365 465 571 678 781 878]
1956,1957,[ 85 170 251 332 414 497 581 663 745 824 902]
1957,1958,[ 73 143 213 283 353 424 498 569 640 710 782 853 923]
1958,1959,[ 38 111 185 261 338 411 486 561 634 707 782 858 934]
1959,1960,[ 31 128 240 344 448 554 652 744 843 944]
1960,1961,[131 244 356 463 576 689 803 915]
1961,1962,[ 32 158 244 371 473 596 722 819 893]
1962,1963,[ 69 158 248 340 425 509 595 686 775 857 939]
1963,1964,[ 96 183 274 366 459 547 635 726 818 910]
1964,1965,[100 169 248 342 464 551 666 755 829 939]
1965,1966,[ 35 103 171 239 309 377 443 509 573 632 694 754 811 852 925]
1966,1967,[ 32  98 166 243 339 419 488 564 660 724 792 860 926]
1967,1968,[ 92 177 267 356 445 535 624 713 802 890]
1968,1969,[ 53 119 187 256 325 393 460 529 597 666 734 803 871 938]
1969,1970,"[ 61 106 151 196 242 287 332 377 422 468 513 558 603 649 694 739 785 830
 876 931]"
1970,1971,[ 49 126 199 275 349 424 500 576 654 734 815 896]
1971,1972,[ 89 159 231 301 375 450 522 591 663 736 811 887]
1972,1973,[133 239 349 457 566 675 782 891]
1973,1974,[ 44 134 222 316 413 513 613 710 809 907]
1974,1975,[100 171 274 362 448 531 621 709 798 888]
1975,1976,[119 215 311 411 515 613 710 807 910]
1976,1977,[ 46  87 163 203 246 289 362 405 480 521 585 641 701 740 786 855 930]
1977,1978,[109 210 313 418 525 631 735 841]
1978,1979,[ 97 194 291 385 478 573 669 763 857]
1979,1980,[106 214 322 429 536 644 750 855]
1980,1981,[ 57 140 222 305 386 467 547 628 709 790 872]
1981,1982,[ 36 106 177 243 312 385 461 532 604 676 748 823 898]
1982,1983,[ 72 149 225 299 371 444 518 594 670 746 819 892]
1983,1984,[ 72 127 183 238 293 347 402 456 511 566 620 674 729 783 837 881 935]
1984,1985,[ 67 146 223 303 381 459 537 615 692 771 850 930]
1985,1986,"[ 33  93 139 195 238 288 341 391 441 491 538 596 638 688 738 788 838 888
 946]"
1986,1987,[101 178 257 335 413 490 568 645 720 795 870 942]
1987,1988,[ 93 163 235 305 374 451 526 598 674 757 839 919]
1988,1989,[ 66 186 304 423 543 660 775 895]
1989,1990,[ 48 127 204 282 360 438 516 594 673 752 830 910]
1990,1991,[118 224 327 428 531 633 733 831 930]
1991,1992,[ 58 138 210 323 423 528 613 689 781 900]
1992,1993,[ 63 156 249 296 419 500 584 663 745 829 911]
1993,1994,[ 98 172 246 318 392 466 544 621 698 774 854 935]
1994,1995,[ 84 158 230 304 380 454 529 606 681 761 837 912]
1995,1996,[ 80 170 260 349 438 530 617 706 799 886]
1996,1997,[ 96 196 300 404 502 597 701 802 903]
1997,1998,[ 31  98 161 227 290 356 421 486 549 615 678 743 808 874 937]
1998,1999,[ 78 184 288 397 504 614 716 816 923]
1999,2000,[ 75 156 236 317 399 481 563 646 730 813 896]
2000,2001,"[ 64  97 129 160 196 229 287 320 376 409 478 528 570 609 645 677 727 767
 799 840 874 908 940]"
2001,2002,[ 48 133 221 309 394 479 569 662 756 849 938]
2002,2003,[ 51 142 239 331 421 507 592 680 771 863]
2003,2004,[ 77 136 191 268 346 414 507 587 678 733 782 854 914]
2004,2005,[ 96 176 257 343 427 515 598 684 766 851 934]
2005,2006,[ 55 137 220 305 388 469 552 633 715 799 888]
2006,2007,[ 55 143 233 324 414 502 592 683 771 861 948]
2007,2008,[ 82 158 232 307 377 448 523 598 671 742 815 892]
2008,2009,[ 52 128 205 284 361 438 515 591 669 748 827 905]
2009,2010,[115 205 298 394 490 586 679 773 870]
2010,2011,[ 59 142 223 306 390 484 573 659 744 828 914]
2011,2012,[ 80 159 238 315 389 463 538 617 697 775 853 930]
2012,2013,[ 40 123 206 289 375 459 543 625 711 795 877]
2013,2014,[ 40 116 191 267 344 423 499 575 653 731 811 889]
2014,2015,[ 55 110 165 220 274 328 382 436 490 544 598 652 707 762 817 873 928]
2015,2016,[ 86 181 278 376 472 566 660 756 850 941]
2016,2017,[102 182 274 362 450 537 624 710 797 882]
2017,2018,[ 85 176 265 352 438 524 613 702 791 879]
2018,2019,[ 47 145 196 311 396 478 555 638 724 801 888]
2019,2020,[ 78 160 244 327 411 494 577 661 745 830 915]
2020,2021,[ 51 160 264 369 461 558 666 773 878]
2021,2022,[ 67 147 229 311 392 470 548 619 684 754 826 901]
2022,2023,[103 178 260 356 458 559 649 733 823 923]
2023,2024,[ 75 158 241 324 407 492 577 662 748 832 917]
2024,2025,[ 59 150 240 331 423 514 606 697 789 882]
2025,2026,[ 74 162 252 346 436 523 613 702 793 886]
2026,2027,[ 82 195 271 346 420 499 577 666 748 830 912]
2027,2028,[ 73 117 168 214 311 358 401 443 523 589 641 726 774 835 880 948]
2028,2029,[123 219 318 415 508 602 698 796 890]
2029,2030,[ 45 117 189 259 328 394 459 525 592 662 733 803 872 939]
2030,2031,[105 183 261 339 417 494 572 650 728 805 883]
2031,2032,[ 81 180 294 369 429 551 615 681 745 840 916]
2032,2033,[156 221 327 393 464 542 626 713 790 866 949]
2033,2034,[ 48 123 199 274 352 431 507 584 661 735 812 889]
2034,2035,[ 84 160 241 317 374 446 506 561 626 688 772 844 912]
2035,2036,[ 95 174 247 323 397 476 557 629 703 779 857 934]
2036,2037,[ 47 159 282 405 524 638 761 890]
2037,2038,[ 54 144 237 328 414 496 582 675 771 867]
2038,2039,"[ 37  87 138 189 239 290 341 391 442 492 543 593 642 694 744 795 845 896
 948]"
2039,2040,[ 91 174 269 365 448 537 624 716 810 902]
2040,2041,[121 215 308 400 491 585 678 771 863]
2041,2042,[ 84 155 227 297 367 438 509 581 651 721 791 862 933]
2042,2043,[ 43 134 225 315 396 470 566 657 697 752 834 915]
2043,2044,[ 58 139 220 304 386 467 550 635 717 799 882]
2044,2045,[ 62 123 186 246 306 364 424 486 551 615 674 733 794 852 916]
2045,2046,[ 57 144 204 274 397 511 620 734 842 937]
2046,2047,[ 81 171 274 365 467 558 660 754 856 948]
2047,2048,"[ 51  95 136 182 226 270 314 359 401 448 490 537 581 623 670 713 761 805
 853 896 941]"
2048,2049,[ 37 121 232 321 493 658 758 833]
2049,2050,[ 31  94 156 219 286 350 415 479 544 609 673 737 801 865 929]
2050,2051,"[ 38  76 116 154 193 231 269 308 345 385 422 463 502 540 576 616 653 693
 731 772 811 847 885 923]"
2051,2052,[ 93 160 226 293 358 423 487 553 619 686 752 820 887]
2052,2053,[ 99 182 268 348 433 517 596 677 759 838 918]
2053,2054,[ 74 138 203 268 332 395 462 526 591 655 720 776 846 908]
2054,2055,[ 85 139 182 221 280 330 373 424 472 526 564 618 691 730 800 840 906]
2055,2056,[101 177 252 328 405 481 557 633 709 784 858 932]
2056,2057,[ 59 119 178 238 299 359 419 479 539 599 659 719 779 839 899]
2057,2058,[ 83 136 190 245 301 355 410 463 517 572 627 682 737 790 844 898]
2058,2059,[ 91 175 271 336 415 535 656 775 893]
2059,2060,[ 72 153 234 313 388 462 539 619 699 778 860 943]
2060,2061,[ 62 140 218 295 371 448 526 606 687 768 850 932]
2061,2062,[115 246 373 499 622 754 887]
2062,2063,[113 204 294 378 463 546 628 711 796 884]
2063,2064,[ 77 158 245 325 406 492 575 657 743 823 902]
2064,2065,[ 83 206 321 432 535 656 774 884]
2065,2066,[ 84 154 231 301 414 501 574 639 712 793 882]
2066,2067,[ 58 130 206 280 358 441 527 603 680 757 830 903]
2067,2068,[ 77 151 225 299 373 446 520 594 668 742 815 890]
2068,2069,[102 181 260 336 411 487 566 645 722 795 864 937]
2069,2070,[ 62 139 213 287 359 437 509 582 656 726 801 871 944]
2070,2071,[ 58 132 204 282 357 432 506 580 652 728 802 877]
2071,2072,[ 42 118 194 269 344 419 495 571 647 724 799 875]
2072,2073,[ 72 111 171 225 298 349 397 446 489 538 592 647 706 764 823 874 927]
2073,2074,[ 54 143 228 313 397 482 567 654 740 828 916]
2074,2075,[ 43  94 146 198 253 306 359 413 466 519 573 627 680 736 788 843 897]
2075,2076,[ 58 154 250 342 439 538 635 736 838 936]
2076,2077,[ 56 122 188 253 319 383 444 509 573 636 698 761 826 894]
2077,2078,[104 217 341 439 504 639 708 844]
2078,2079,[ 49 160 265 378 491 602 716 829 940]
2079,2080,[ 78 141 204 267 329 397 463 525 588 652 718 787 855 923]
2080,2081,[ 95 173 251 329 407 482 560 637 715 795 873 949]
2081,2082,[ 49 122 185 258 326 393 458 522 589 658 721 774 850 922]
2082,2083,[ 43 131 218 305 392 479 566 652 741 830 919]
2083,2084,[ 50 120 190 273 355 431 501 569 643 733 838 920]
2084,2085,[100 237 376 515 640 781 920]
2085,2086,[107 186 265 334 407 482 559 636 706 780 859 932]
2086,2087,[ 92 155 219 288 376 462 542 620 699 777 849 912]
2087,2088,[ 88 171 255 339 423 506 588 667 747 826 905]
2088,2089,[ 43 125 209 293 375 459 544 634 718 804 888]
2089,2090,[ 44 127 211 293 382 460 543 631 709 792 875]
2090,2091,[ 93 182 272 360 446 533 621 710 802 894]
2091,2092,[ 40  81 159 217 277 330 395 454 510 568 627 685 741 799 857 917]
2092,2093,[114 196 269 312 417 497 568 612 717 793 869 912]
2093,2094,[105 181 259 345 428 509 589 668 743 815 885]
2094,2095,[ 59 146 229 323 429 532 638 734 824 913]
2095,2096,[ 32  73 138 192 246 298 352 406 458 511 564 616 670 725 777 830 883 936]
2096,2097,[ 59 180 299 416 534 648 763 880]
2097,2098,[ 37 132 225 321 415 512 609 705 803 898]
2098,2099,[ 51 109 168 227 287 344 404 464 524 583 643 704 765 826 887 949]
2099,2100,[ 49 147 246 342 442 540 637 738 836 932]
2100,2101,[ 45 123 199 279 357 436 515 592 671 750 828 906]
2101,2102,[ 93 168 244 323 404 489 578 668 758 845 929]
2102,2103,[ 47 107 157 269 348 427 491 573 640 726 802 866]
2103,2104,[ 35  95 156 217 278 341 404 466 527 589 651 713 775 835 896]
2104,2105,[ 36 106 175 245 319 392 467 542 611 687 758 830 906]
2105,2106,[ 48 124 200 277 355 432 510 586 663 740 818 897]
2106,2107,[ 58 135 210 286 362 436 509 582 652 728 800 871 946]
2107,2108,[116 203 290 378 464 549 636 722 807 892]
2108,2109,[111 198 287 371 458 545 632 716 802 889]
2109,2110,[118 226 325 427 530 634 740 845 948]
2110,2111,[ 80 168 253 342 430 520 611 701 754 791 879 911]
2111,2112,[113 198 282 366 446 533 617 697 783 866]
2112,2113,[ 68 145 226 307 388 467 547 628 709 792 872]
2113,2114,[ 97 175 253 331 408 485 563 640 715 791 867 942]
2114,2115,[ 70 152 238 328 419 511 597 681 765 845 928]
2115,2116,[ 92 174 256 339 423 506 587 668 750 832 915]
2116,2117,[ 93 158 223 288 353 418 483 548 614 677 746 812 879 946]
2117,2118,[ 51 166 275 388 498 611 723 832 947]
2118,2119,[ 39 109 174 244 311 378 445 512 578 644 711 776 845 912]
2119,2120,[ 76 180 284 388 490 589 684 785 887]
2120,2121,[ 71 140 209 278 349 422 494 566 638 710 783 854 925]
2121,2122,[ 74 166 257 344 432 520 606 693 779 866]
2122,2123,[ 93 153 214 278 341 401 464 529 591 650 715 775 834 896]
2123,2124,[129 220 302 363 463 571 678 801 904]
2124,2125,[ 54  92 126 198 242 294 340 382 423 463 502 565 600 667 717 810 887]
2125,2126,[117 208 295 382 469 559 643 736 834 933]
2126,2127,[ 44 165 274 384 503 626 738 846]
2127,2128,[ 31 118 208 296 381 474 564 653 738 828 912]
2128,2129,[ 42 117 193 272 353 437 515 592 669 750 836 923]
2129,2130,[ 66 179 294 408 524 639 753 867]
2130,2131,[ 67 158 249 343 437 528 622 716 812 901]
2131,2132,[133 247 363 477 592 708 825 935]
2132,2133,[ 45 118 189 258 328 397 466 534 603 673 744 816 888]
